// thickness-independent fraction of light power (for rudimentary optics) between 0 and 1
simple transmission coefficient:
1

// wavelength-independent absorption coefficient 'a' according to I(z)=I0*exp(-a*z) in [1/m]
lambert beer absorption coefficient:
0

// three-column refractive data for TMM calculations with wavelength [nm], n, k (must be tab-separated)
refractive data:
300	2.47062	0.4999
300.66533	2.47165	0.49547
301.33067	2.47265	0.49103
301.996	2.47362	0.4866
302.66133	2.47454	0.48216
303.32666	2.47544	0.47773
303.992	2.4763	0.4733
304.65733	2.47713	0.46887
305.32266	2.47792	0.46445
305.98799	2.47868	0.46002
306.65333	2.47941	0.4556
307.31866	2.4801	0.45119
307.98399	2.48076	0.44677
308.64932	2.48138	0.44236
309.31466	2.48197	0.43795
309.97999	2.48253	0.43354
310.64532	2.48305	0.42914
311.31066	2.48354	0.42475
311.97599	2.484	0.42035
312.64132	2.48442	0.41597
313.30665	2.48481	0.41159
313.97199	2.48516	0.40721
314.63732	2.48548	0.40284
315.30265	2.48576	0.39847
315.96798	2.48602	0.39411
316.63332	2.48623	0.38976
317.29865	2.48642	0.38541
317.96398	2.48657	0.38107
318.62931	2.48668	0.37674
319.29465	2.48677	0.37241
319.95998	2.48682	0.36809
320.62531	2.48683	0.36378
321.29065	2.48681	0.35948
321.95598	2.48676	0.35519
322.62131	2.48668	0.3509
323.28664	2.48656	0.34663
323.95198	2.48641	0.34236
324.61731	2.48622	0.3381
325.28264	2.486	0.33385
325.94797	2.48575	0.32962
326.61331	2.48546	0.32539
327.27864	2.48514	0.32117
327.94397	2.48479	0.31697
328.6093	2.4844	0.31277
329.27464	2.48399	0.30859
329.93997	2.48353	0.30442
330.6053	2.48305	0.30026
331.27064	2.48253	0.29611
331.93597	2.48198	0.29197
332.6013	2.48139	0.28785
333.26663	2.48077	0.28374
333.93197	2.48012	0.27965
334.5973	2.47944	0.27556
335.26263	2.47872	0.2715
335.92796	2.47797	0.26744
336.5933	2.47719	0.26341
337.25863	2.47638	0.25938
337.92396	2.47553	0.25537
338.58929	2.47465	0.25138
339.25463	2.47374	0.24741
339.91996	2.47279	0.24345
340.58529	2.47182	0.2395
341.25063	2.47081	0.23557
341.91596	2.46977	0.23167
342.58129	2.46869	0.22777
343.24662	2.46759	0.2239
343.91196	2.46645	0.22004
344.57729	2.46528	0.21621
345.24262	2.46408	0.21239
345.90795	2.46285	0.20859
346.57329	2.46159	0.20481
347.23862	2.46029	0.20105
347.90395	2.45897	0.19731
348.56928	2.45761	0.19359
349.23462	2.45622	0.1899
349.89995	2.4548	0.18622
350.56528	2.45335	0.18256
351.23062	2.45187	0.17893
351.89595	2.45036	0.17532
352.56128	2.44882	0.17174
353.22661	2.44725	0.16817
353.89195	2.44565	0.16463
354.55728	2.44402	0.16112
355.22261	2.44235	0.15762
355.88794	2.44066	0.15416
356.55328	2.43894	0.15072
357.21861	2.43719	0.1473
357.88394	2.43541	0.14391
358.54927	2.4336	0.14055
359.21461	2.43177	0.13721
359.87994	2.4299	0.1339
360.54527	2.42801	0.13062
361.21061	2.42608	0.12736
361.87594	2.42413	0.12414
362.54127	2.42216	0.12094
363.2066	2.42015	0.11777
363.87194	2.41812	0.11464
364.53727	2.41606	0.11153
365.2026	2.41397	0.10845
365.86793	2.41186	0.10541
366.53327	2.40971	0.10239
367.1986	2.40755	0.09941
367.86393	2.40536	0.09646
368.52926	2.40314	0.09354
369.1946	2.4009	0.09066
369.85993	2.39863	0.08781
370.52526	2.39634	0.085
371.1906	2.39402	0.08222
371.85593	2.39168	0.07947
372.52126	2.38931	0.07677
373.18659	2.38693	0.07409
373.85193	2.38452	0.07146
374.51726	2.38208	0.06886
375.18259	2.37963	0.0663
375.84792	2.37715	0.06378
376.51326	2.37466	0.0613
377.17859	2.37214	0.05886
377.84392	2.3696	0.05646
378.50925	2.36704	0.0541
379.17459	2.36446	0.05178
379.83992	2.36187	0.0495
380.50525	2.35925	0.04726
381.17059	2.35662	0.04507
381.83592	2.35397	0.04292
382.50125	2.3513	0.04082
383.16658	2.34862	0.03876
383.83192	2.34593	0.03675
384.49725	2.34321	0.03478
385.16258	2.34049	0.03286
385.82791	2.33775	0.03098
386.49325	2.335	0.02915
387.15858	2.33224	0.02738
387.82391	2.32946	0.02565
388.48924	2.32668	0.02397
389.15458	2.32389	0.02234
389.81991	2.32109	0.02076
390.48524	2.31828	0.01924
391.15058	2.31547	0.01776
391.81591	2.31265	0.01634
392.48124	2.30983	0.01498
393.14657	2.307	0.01367
393.81191	2.30418	0.01241
394.47724	2.30135	0.01121
395.14257	2.29853	0.01007
395.8079	2.29571	0.00898
396.47324	2.29289	0.00795
397.13857	2.29008	0.00698
397.8039	2.28728	0.00607
398.46923	2.28449	0.00522
399.13457	2.28171	0.00444
399.7999	2.27894	0.00371
400.46523	2.2762	0.00304
401.13057	2.27347	0.00244
401.7959	2.27076	0.00191
402.46123	2.26808	0.00144
403.12656	2.26543	0.00103
403.7919	2.26281	6.9E-4
404.45723	2.26024	4.2E-4
405.12256	2.2577	2.1E-4
405.78789	2.25523	7E-5
406.45323	2.25282	1E-5
407.11856	2.2505	0
407.78389	2.24828	0
408.44922	2.24613	0
409.11456	2.24404	0
409.77989	2.242	0
410.44522	2.24	0
411.11056	2.23805	0
411.77589	2.23614	0
412.44122	2.23427	0
413.10655	2.23244	0
413.77189	2.23063	0
414.43722	2.22886	0
415.10255	2.22712	0
415.76788	2.22541	0
416.43322	2.22373	0
417.09855	2.22207	0
417.76388	2.22044	0
418.42921	2.21883	0
419.09455	2.21725	0
419.75988	2.21569	0
420.42521	2.21415	0
421.09055	2.21264	0
421.75588	2.21114	0
422.42121	2.20967	0
423.08654	2.20821	0
423.75188	2.20678	0
424.41721	2.20536	0
425.08254	2.20396	0
425.74787	2.20258	0
426.41321	2.20121	0
427.07854	2.19986	0
427.74387	2.19853	0
428.4092	2.19722	0
429.07454	2.19592	0
429.73987	2.19463	0
430.4052	2.19336	0
431.07054	2.1921	0
431.73587	2.19086	0
432.4012	2.18963	0
433.06653	2.18842	0
433.73187	2.18722	0
434.3972	2.18603	0
435.06253	2.18485	0
435.72786	2.18369	0
436.3932	2.18254	0
437.05853	2.1814	0
437.72386	2.18027	0
438.38919	2.17916	0
439.05453	2.17805	0
439.71986	2.17696	0
440.38519	2.17587	0
441.05053	2.1748	0
441.71586	2.17374	0
442.38119	2.17269	0
443.04652	2.17165	0
443.71186	2.17062	0
444.37719	2.16959	0
445.04252	2.16858	0
445.70785	2.16758	0
446.37319	2.16659	0
447.03852	2.1656	0
447.70385	2.16463	0
448.36918	2.16366	0
449.03452	2.1627	0
449.69985	2.16175	0
450.36518	2.16081	0
451.03052	2.15988	0
451.69585	2.15896	0
452.36118	2.15804	0
453.02651	2.15713	0
453.69185	2.15623	0
454.35718	2.15534	0
455.02251	2.15446	0
455.68784	2.15358	0
456.35318	2.15271	0
457.01851	2.15185	0
457.68384	2.15099	0
458.34917	2.15014	0
459.01451	2.1493	0
459.67984	2.14846	0
460.34517	2.14764	0
461.01051	2.14682	0
461.67584	2.146	0
462.34117	2.14519	0
463.0065	2.14439	0
463.67184	2.1436	0
464.33717	2.14281	0
465.0025	2.14202	0
465.66783	2.14125	0
466.33317	2.14048	0
466.9985	2.13971	0
467.66383	2.13895	0
468.32916	2.1382	0
468.9945	2.13745	0
469.65983	2.13671	0
470.32516	2.13597	0
470.9905	2.13524	0
471.65583	2.13452	0
472.32116	2.1338	0
472.98649	2.13308	0
473.65183	2.13237	0
474.31716	2.13167	0
474.98249	2.13097	0
475.64782	2.13028	0
476.31316	2.12959	0
476.97849	2.1289	0
477.64382	2.12822	0
478.30915	2.12755	0
478.97449	2.12688	0
479.63982	2.12621	0
480.30515	2.12555	0
480.97049	2.1249	0
481.63582	2.12425	0
482.30115	2.1236	0
482.96648	2.12296	0
483.63182	2.12232	0
484.29715	2.12169	0
484.96248	2.12106	0
485.62781	2.12043	0
486.29315	2.11981	0
486.95848	2.1192	0
487.62381	2.11859	0
488.28914	2.11798	0
488.95448	2.11737	0
489.61981	2.11677	0
490.28514	2.11618	0
490.95048	2.11559	0
491.61581	2.115	0
492.28114	2.11441	0
492.94647	2.11383	0
493.61181	2.11326	0
494.27714	2.11268	0
494.94247	2.11212	0
495.6078	2.11155	0
496.27314	2.11099	0
496.93847	2.11043	0
497.6038	2.10988	0
498.26913	2.10932	0
498.93447	2.10878	0
499.5998	2.10823	0
500.26513	2.10769	0
500.93047	2.10715	0
501.5958	2.10662	0
502.26113	2.10609	0
502.92646	2.10556	0
503.5918	2.10504	0
504.25713	2.10452	0
504.92246	2.104	0
505.58779	2.10348	0
506.25313	2.10297	0
506.91846	2.10246	0
507.58379	2.10196	0
508.24912	2.10145	0
508.91446	2.10096	0
509.57979	2.10046	0
510.24512	2.09997	0
510.91046	2.09948	0
511.57579	2.09899	0
512.24112	2.0985	0
512.90645	2.09802	0
513.57179	2.09754	0
514.23712	2.09707	0
514.90245	2.09659	0
515.56778	2.09612	0
516.23312	2.09565	0
516.89845	2.09519	0
517.56378	2.09473	0
518.22911	2.09427	0
518.89445	2.09381	0
519.55978	2.09335	0
520.22511	2.0929	0
520.89045	2.09245	0
521.55578	2.09201	0
522.22111	2.09156	0
522.88644	2.09112	0
523.55178	2.09068	0
524.21711	2.09024	0
524.88244	2.08981	0
525.54777	2.08938	0
526.21311	2.08895	0
526.87844	2.08852	0
527.54377	2.0881	0
528.2091	2.08767	0
528.87444	2.08725	0
529.53977	2.08684	0
530.2051	2.08642	0
530.87044	2.08601	0
531.53577	2.0856	0
532.2011	2.08519	0
532.86643	2.08478	0
533.53177	2.08438	0
534.1971	2.08397	0
534.86243	2.08357	0
535.52776	2.08317	0
536.1931	2.08278	0
536.85843	2.08238	0
537.52376	2.08199	0
538.18909	2.0816	0
538.85443	2.08122	0
539.51976	2.08083	0
540.18509	2.08045	0
540.85043	2.08007	0
541.51576	2.07969	0
542.18109	2.07931	0
542.84642	2.07893	0
543.51176	2.07856	0
544.17709	2.07819	0
544.84242	2.07782	0
545.50775	2.07745	0
546.17309	2.07708	0
546.83842	2.07672	0
547.50375	2.07636	0
548.16908	2.076	0
548.83442	2.07564	0
549.49975	2.07528	0
550.16508	2.07493	0
550.83042	2.07457	0
551.49575	2.07422	0
552.16108	2.07387	0
552.82641	2.07353	0
553.49175	2.07318	0
554.15708	2.07284	0
554.82241	2.07249	0
555.48774	2.07215	0
556.15308	2.07181	0
556.81841	2.07148	0
557.48374	2.07114	0
558.14907	2.07081	0
558.81441	2.07047	0
559.47974	2.07014	0
560.14507	2.06981	0
560.81041	2.06948	0
561.47574	2.06916	0
562.14107	2.06883	0
562.8064	2.06851	0
563.47174	2.06819	0
564.13707	2.06787	0
564.8024	2.06755	0
565.46773	2.06723	0
566.13307	2.06692	0
566.7984	2.06661	0
567.46373	2.06629	0
568.12906	2.06598	0
568.7944	2.06567	0
569.45973	2.06537	0
570.12506	2.06506	0
570.7904	2.06475	0
571.45573	2.06445	0
572.12106	2.06415	0
572.78639	2.06385	0
573.45173	2.06355	0
574.11706	2.06325	0
574.78239	2.06295	0
575.44772	2.06266	0
576.11306	2.06236	0
576.77839	2.06207	0
577.44372	2.06178	0
578.10905	2.06149	0
578.77439	2.0612	0
579.43972	2.06092	0
580.10505	2.06063	0
580.77039	2.06035	0
581.43572	2.06006	0
582.10105	2.05978	0
582.76638	2.0595	0
583.43172	2.05922	0
584.09705	2.05894	0
584.76238	2.05867	0
585.42771	2.05839	0
586.09305	2.05812	0
586.75838	2.05784	0
587.42371	2.05757	0
588.08904	2.0573	0
588.75438	2.05703	0
589.41971	2.05676	0
590.08504	2.0565	0
590.75038	2.05623	0
591.41571	2.05597	0
592.08104	2.0557	0
592.74637	2.05544	0
593.41171	2.05518	0
594.07704	2.05492	0
594.74237	2.05466	0
595.4077	2.0544	0
596.07304	2.05415	0
596.73837	2.05389	0
597.4037	2.05364	0
598.06903	2.05338	0
598.73437	2.05313	0
599.3997	2.05288	0
600.06503	2.05263	0
600.73037	2.05238	0
601.3957	2.05213	0
602.06103	2.05189	0
602.72636	2.05164	0
603.3917	2.0514	0
604.05703	2.05115	0
604.72236	2.05091	0
605.38769	2.05067	0
606.05303	2.05043	0
606.71836	2.05019	0
607.38369	2.04995	0
608.04902	2.04971	0
608.71436	2.04948	0
609.37969	2.04924	0
610.04502	2.049	0
610.71036	2.04877	0
611.37569	2.04854	0
612.04102	2.04831	0
612.70635	2.04808	0
613.37169	2.04785	0
614.03702	2.04762	0
614.70235	2.04739	0
615.36768	2.04716	0
616.03302	2.04694	0
616.69835	2.04671	0
617.36368	2.04649	0
618.02901	2.04627	0
618.69435	2.04604	0
619.35968	2.04582	0
620.02501	2.0456	0
620.69035	2.04538	0
621.35568	2.04516	0
622.02101	2.04495	0
622.68634	2.04473	0
623.35168	2.04451	0
624.01701	2.0443	0
624.68234	2.04408	0
625.34767	2.04387	0
626.01301	2.04366	0
626.67834	2.04345	0
627.34367	2.04324	0
628.009	2.04303	0
628.67434	2.04282	0
629.33967	2.04261	0
630.005	2.0424	0
630.67034	2.04219	0
631.33567	2.04199	0
632.001	2.04178	0
632.66633	2.04158	0
633.33167	2.04138	0
633.997	2.04117	0
634.66233	2.04097	0
635.32766	2.04077	0
635.993	2.04057	0
636.65833	2.04037	0
637.32366	2.04017	0
637.98899	2.03997	0
638.65433	2.03978	0
639.31966	2.03958	0
639.98499	2.03939	0
640.65033	2.03919	0
641.31566	2.039	0
641.98099	2.0388	0
642.64632	2.03861	0
643.31166	2.03842	0
643.97699	2.03823	0
644.64232	2.03804	0
645.30765	2.03785	0
645.97299	2.03766	0
646.63832	2.03747	0
647.30365	2.03728	0
647.96898	2.0371	0
648.63432	2.03691	0
649.29965	2.03673	0
649.96498	2.03654	0
650.63032	2.03636	0
651.29565	2.03617	0
651.96098	2.03599	0
652.62631	2.03581	0
653.29165	2.03563	0
653.95698	2.03545	0
654.62231	2.03527	0
655.28764	2.03509	0
655.95298	2.03491	0
656.61831	2.03473	0
657.28364	2.03456	0
657.94897	2.03438	0
658.61431	2.0342	0
659.27964	2.03403	0
659.94497	2.03385	0
660.61031	2.03368	0
661.27564	2.03351	0
661.94097	2.03333	0
662.6063	2.03316	0
663.27164	2.03299	0
663.93697	2.03282	0
664.6023	2.03265	0
665.26763	2.03248	0
665.93297	2.03231	0
666.5983	2.03214	0
667.26363	2.03198	0
667.92896	2.03181	0
668.5943	2.03164	0
669.25963	2.03148	0
669.92496	2.03131	0
670.5903	2.03115	0
671.25563	2.03098	0
671.92096	2.03082	0
672.58629	2.03066	0
673.25163	2.0305	0
673.91696	2.03033	0
674.58229	2.03017	0
675.24762	2.03001	0
675.91296	2.02985	0
676.57829	2.02969	0
677.24362	2.02953	0
677.90895	2.02938	0
678.57429	2.02922	0
679.23962	2.02906	0
679.90495	2.02891	0
680.57029	2.02875	0
681.23562	2.02859	0
681.90095	2.02844	0
682.56628	2.02828	0
683.23162	2.02813	0
683.89695	2.02798	0
684.56228	2.02783	0
685.22761	2.02767	0
685.89295	2.02752	0
686.55828	2.02737	0
687.22361	2.02722	0
687.88894	2.02707	0
688.55428	2.02692	0
689.21961	2.02677	0
689.88494	2.02662	0
690.55028	2.02647	0
691.21561	2.02633	0
691.88094	2.02618	0
692.54627	2.02603	0
693.21161	2.02589	0
693.87694	2.02574	0
694.54227	2.0256	0
695.2076	2.02545	0
695.87294	2.02531	0
696.53827	2.02517	0
697.2036	2.02502	0
697.86893	2.02488	0
698.53427	2.02474	0
699.1996	2.0246	0
699.86493	2.02446	0
700.53027	2.02432	0
701.1956	2.02418	0
701.86093	2.02404	0
702.52626	2.0239	0
703.1916	2.02376	0
703.85693	2.02362	0
704.52226	2.02348	0
705.18759	2.02335	0
705.85293	2.02321	0
706.51826	2.02307	0
707.18359	2.02294	0
707.84892	2.0228	0
708.51426	2.02267	0
709.17959	2.02253	0
709.84492	2.0224	0
710.51026	2.02226	0
711.17559	2.02213	0
711.84092	2.022	0
712.50625	2.02187	0
713.17159	2.02173	0
713.83692	2.0216	0
714.50225	2.02147	0
715.16758	2.02134	0
715.83292	2.02121	0
716.49825	2.02108	0
717.16358	2.02095	0
717.82891	2.02082	0
718.49425	2.02069	0
719.15958	2.02057	0
719.82491	2.02044	0
720.49025	2.02031	0
721.15558	2.02018	0
721.82091	2.02006	0
722.48624	2.01993	0
723.15158	2.01981	0
723.81691	2.01968	0
724.48224	2.01956	0
725.14757	2.01943	0
725.81291	2.01931	0
726.47824	2.01919	0
727.14357	2.01906	0
727.8089	2.01894	0
728.47424	2.01882	0
729.13957	2.0187	0
729.8049	2.01857	0
730.47024	2.01845	0
731.13557	2.01833	0
731.8009	2.01821	0
732.46623	2.01809	0
733.13157	2.01797	0
733.7969	2.01785	0
734.46223	2.01773	0
735.12756	2.01762	0
735.7929	2.0175	0
736.45823	2.01738	0
737.12356	2.01726	0
737.78889	2.01715	0
738.45423	2.01703	0
739.11956	2.01691	0
739.78489	2.0168	0
740.45023	2.01668	0
741.11556	2.01657	0
741.78089	2.01645	0
742.44622	2.01634	0
743.11156	2.01622	0
743.77689	2.01611	0
744.44222	2.016	0
745.10755	2.01588	0
745.77289	2.01577	0
746.43822	2.01566	0
747.10355	2.01555	0
747.76888	2.01543	0
748.43422	2.01532	0
749.09955	2.01521	0
749.76488	2.0151	0
750.43022	2.01499	0
751.09555	2.01488	0
751.76088	2.01477	0
752.42621	2.01466	0
753.09155	2.01455	0
753.75688	2.01444	0
754.42221	2.01434	0
755.08754	2.01423	0
755.75288	2.01412	0
756.41821	2.01401	0
757.08354	2.01391	0
757.74887	2.0138	0
758.41421	2.01369	0
759.07954	2.01359	0
759.74487	2.01348	0
760.41021	2.01338	0
761.07554	2.01327	0
761.74087	2.01317	0
762.4062	2.01306	0
763.07154	2.01296	0
763.73687	2.01286	0
764.4022	2.01275	0
765.06753	2.01265	0
765.73287	2.01255	0
766.3982	2.01244	0
767.06353	2.01234	0
767.72886	2.01224	0
768.3942	2.01214	0
769.05953	2.01204	0
769.72486	2.01194	0
770.3902	2.01184	0
771.05553	2.01174	0
771.72086	2.01164	0
772.38619	2.01154	0
773.05153	2.01144	0
773.71686	2.01134	0
774.38219	2.01124	0
775.04752	2.01114	0
775.71286	2.01104	0
776.37819	2.01094	0
777.04352	2.01085	0
777.70885	2.01075	0
778.37419	2.01065	0
779.03952	2.01055	0
779.70485	2.01046	0
780.37019	2.01036	0
781.03552	2.01026	0
781.70085	2.01017	0
782.36618	2.01007	0
783.03152	2.00998	0
783.69685	2.00988	0
784.36218	2.00979	0
785.02751	2.00969	0
785.69285	2.0096	0
786.35818	2.00951	0
787.02351	2.00941	0
787.68884	2.00932	0
788.35418	2.00923	0
789.01951	2.00913	0
789.68484	2.00904	0
790.35018	2.00895	0
791.01551	2.00886	0
791.68084	2.00877	0
792.34617	2.00867	0
793.01151	2.00858	0
793.67684	2.00849	0
794.34217	2.0084	0
795.0075	2.00831	0
795.67284	2.00822	0
796.33817	2.00813	0
797.0035	2.00804	0
797.66883	2.00795	0
798.33417	2.00786	0
798.9995	2.00778	0
799.66483	2.00769	0
800.33017	2.0076	0
800.9955	2.00751	0
801.66083	2.00742	0
802.32616	2.00734	0
802.9915	2.00725	0
803.65683	2.00716	0
804.32216	2.00707	0
804.98749	2.00699	0
805.65283	2.0069	0
806.31816	2.00681	0
806.98349	2.00673	0
807.64882	2.00664	0
808.31416	2.00656	0
808.97949	2.00647	0
809.64482	2.00639	0
810.31016	2.0063	0
810.97549	2.00622	0
811.64082	2.00613	0
812.30615	2.00605	0
812.97149	2.00597	0
813.63682	2.00588	0
814.30215	2.0058	0
814.96748	2.00572	0
815.63282	2.00563	0
816.29815	2.00555	0
816.96348	2.00547	0
817.62881	2.00539	0
818.29415	2.00531	0
818.95948	2.00522	0
819.62481	2.00514	0
820.29015	2.00506	0
820.95548	2.00498	0
821.62081	2.0049	0
822.28614	2.00482	0
822.95148	2.00474	0
823.61681	2.00466	0
824.28214	2.00458	0
824.94747	2.0045	0
825.61281	2.00442	0
826.27814	2.00434	0
826.94347	2.00426	0
827.6088	2.00418	0
828.27414	2.0041	0
828.93947	2.00403	0
829.6048	2.00395	0
830.27014	2.00387	0
830.93547	2.00379	0
831.6008	2.00371	0
832.26613	2.00364	0
832.93147	2.00356	0
833.5968	2.00348	0
834.26213	2.00341	0
834.92746	2.00333	0
835.5928	2.00325	0
836.25813	2.00318	0
836.92346	2.0031	0
837.58879	2.00303	0
838.25413	2.00295	0
838.91946	2.00287	0
839.58479	2.0028	0
840.25013	2.00272	0
840.91546	2.00265	0
841.58079	2.00258	0
842.24612	2.0025	0
842.91146	2.00243	0
843.57679	2.00235	0
844.24212	2.00228	0
844.90745	2.00221	0
845.57279	2.00213	0
846.23812	2.00206	0
846.90345	2.00199	0
847.56878	2.00191	0
848.23412	2.00184	0
848.89945	2.00177	0
849.56478	2.0017	0
850.23012	2.00163	0
850.89545	2.00155	0
851.56078	2.00148	0
852.22611	2.00141	0
852.89145	2.00134	0
853.55678	2.00127	0
854.22211	2.0012	0
854.88744	2.00113	0
855.55278	2.00106	0
856.21811	2.00099	0
856.88344	2.00092	0
857.54877	2.00085	0
858.21411	2.00078	0
858.87944	2.00071	0
859.54477	2.00064	0
860.21011	2.00057	0
860.87544	2.0005	0
861.54077	2.00043	0
862.2061	2.00036	0
862.87144	2.00029	0
863.53677	2.00022	0
864.2021	2.00016	0
864.86743	2.00009	0
865.53277	2.00002	0
866.1981	1.99995	0
866.86343	1.99989	0
867.52876	1.99982	0
868.1941	1.99975	0
868.85943	1.99968	0
869.52476	1.99962	0
870.1901	1.99955	0
870.85543	1.99948	0
871.52076	1.99942	0
872.18609	1.99935	0
872.85143	1.99929	0
873.51676	1.99922	0
874.18209	1.99915	0
874.84742	1.99909	0
875.51276	1.99902	0
876.17809	1.99896	0
876.84342	1.99889	0
877.50875	1.99883	0
878.17409	1.99876	0
878.83942	1.9987	0
879.50475	1.99864	0
880.17009	1.99857	0
880.83542	1.99851	0
881.50075	1.99844	0
882.16608	1.99838	0
882.83142	1.99832	0
883.49675	1.99825	0
884.16208	1.99819	0
884.82741	1.99813	0
885.49275	1.99806	0
886.15808	1.998	0
886.82341	1.99794	0
887.48874	1.99788	0
888.15408	1.99781	0
888.81941	1.99775	0
889.48474	1.99769	0
890.15008	1.99763	0
890.81541	1.99757	0
891.48074	1.99751	0
892.14607	1.99744	0
892.81141	1.99738	0
893.47674	1.99732	0
894.14207	1.99726	0
894.8074	1.9972	0
895.47274	1.99714	0
896.13807	1.99708	0
896.8034	1.99702	0
897.46873	1.99696	0
898.13407	1.9969	0
898.7994	1.99684	0
899.46473	1.99678	0
900.13007	1.99672	0
900.7954	1.99666	0
901.46073	1.9966	0
902.12606	1.99654	0
902.7914	1.99648	0
903.45673	1.99643	0
904.12206	1.99637	0
904.78739	1.99631	0
905.45273	1.99625	0
906.11806	1.99619	0
906.78339	1.99613	0
907.44872	1.99608	0
908.11406	1.99602	0
908.77939	1.99596	0
909.44472	1.9959	0
910.11006	1.99585	0
910.77539	1.99579	0
911.44072	1.99573	0
912.10605	1.99567	0
912.77139	1.99562	0
913.43672	1.99556	0
914.10205	1.9955	0
914.76738	1.99545	0
915.43272	1.99539	0
916.09805	1.99533	0
916.76338	1.99528	0
917.42871	1.99522	0
918.09405	1.99517	0
918.75938	1.99511	0
919.42471	1.99506	0
920.09005	1.995	0
920.75538	1.99495	0
921.42071	1.99489	0
922.08604	1.99484	0
922.75138	1.99478	0
923.41671	1.99473	0
924.08204	1.99467	0
924.74737	1.99462	0
925.41271	1.99456	0
926.07804	1.99451	0
926.74337	1.99445	0
927.4087	1.9944	0
