// thickness-independent fraction of light power (for rudimentary optics) between 0 and 1
simple transmission coefficient:
1

// wavelength-independent absorption coefficient 'a' according to I(z)=I0*exp(-a*z) in [1/m]
lambert beer absorption coefficient:
0

// three-column refractive data for TMM calculations with wavelength [nm], n, k (must be tab-separated)
refractive data:
300	2.22584	0.777564
302	2.21827	0.739097
304	2.21094	0.701687
306	2.20385	0.665331
308	2.19698	0.630026
310	2.19033	0.595771
312	2.18388	0.562563
314	2.17763	0.530399
316	2.17156	0.499276
318	2.16567	0.469192
320	2.15996	0.440141
322	2.1544	0.412122
324	2.14901	0.385129
326	2.14377	0.359157
328	2.13867	0.334199
330	2.13371	0.310249
332	2.12889	0.287296
334	2.12419	0.265333
336	2.11962	0.244346
338	2.11517	0.224322
340	2.11083	0.205248
342	2.10661	0.187108
344	2.10249	0.169885
346	2.09847	0.153567
348	2.09456	0.138138
350	2.09074	0.123591
352	2.08701	0.109922
354	2.08337	0.0971367
356	2.07982	0.0852489
358	2.07635	0.074282
360	2.07296	0.0642653
362	2.06966	0.0552287
364	2.06642	0.0471927
366	2.06326	0.040159
368	2.06017	0.0341014
370	2.05715	0.0289622
372	2.0542	0.0246555
374	2.05131	0.0210756
376	2.04848	0.0181091
378	2.04571	0.0156462
380	2.04301	0.0135882
382	2.04036	0.0118518
384	2.03776	0.0103668
386	2.03522	0.00904385
388	2.03273	0.00786061
390	2.03029	0.0068143
392	2.0279	0.00589693
394	2.02556	0.00509769
396	2.02326	0.00440457
398	2.02101	0.0038054
400	2.01881	0.0032886
402	2.01664	0.00284345
404	2.01452	0.0024603
406	2.01244	0.00213062
408	2.0104	0.00184691
410	2.00839	0.00160267
412	2.00643	0.00139229
414	2.0045	0.00121093
416	2.0026	0.00105444
418	2.00074	0.000919296
420	1.99892	0.000802451
422	1.99712	0.00070132
424	1.99536	0.000613689
426	1.99363	0.000537668
428	1.99193	0.000471642
430	1.99026	0.000414227
432	1.98862	0.000364242
434	1.98701	0.000320673
436	1.98543	0.000282652
438	1.98387	0.000249432
440	1.98234	0.000220374
442	1.98083	0.000194927
444	1.97935	0.000172616
446	1.97789	0.000153033
448	1.97646	0.000135824
450	1.97505	0.000120685
452	1.97367	0.000107352
454	1.9723	9.56E-05
456	1.97096	8.52E-05
458	1.96964	7.61E-05
460	1.96834	6.79E-05
462	1.96706	6.08E-05
464	1.96581	5.44E-05
466	1.96457	4.88E-05
468	1.96335	4.37E-05
470	1.96215	3.93E-05
472	1.96096	3.53E-05
474	1.9598	3.18E-05
476	1.95865	2.86E-05
478	1.95752	2.58E-05
480	1.95641	2.33E-05
482	1.95531	2.11E-05
484	1.95423	1.91E-05
486	1.95317	1.73E-05
488	1.95212	1.57E-05
490	1.95108	1.42E-05
492	1.95006	1.29E-05
494	1.94906	1.17E-05
496	1.94807	1.07E-05
498	1.94709	9.75E-06
500	1.94613	8.90E-06
502	1.94518	8.13E-06
504	1.94425	7.44E-06
506	1.94333	6.82E-06
508	1.94242	6.25E-06
510	1.94152	5.74E-06
512	1.94063	5.28E-06
514	1.93976	4.86E-06
516	1.9389	4.48E-06
518	1.93805	4.13E-06
520	1.93721	3.82E-06
522	1.93639	3.54E-06
524	1.93557	3.28E-06
526	1.93477	3.04E-06
528	1.93397	2.83E-06
530	1.93319	2.64E-06
532	1.93241	2.46E-06
534	1.93165	2.30E-06
536	1.9309	2.15E-06
538	1.93015	2.02E-06
540	1.92942	1.89E-06
542	1.92869	1.78E-06
544	1.92797	1.68E-06
546	1.92727	1.58E-06
548	1.92657	1.50E-06
550	1.92588	1.42E-06
552	1.9252	1.35E-06
554	1.92452	1.28E-06
556	1.92386	1.22E-06
558	1.9232	1.17E-06
560	1.92256	1.11E-06
562	1.92191	1.07E-06
564	1.92128	1.02E-06
566	1.92066	9.85E-07
568	1.92004	9.48E-07
570	1.91943	9.15E-07
572	1.91883	8.84E-07
574	1.91823	8.56E-07
576	1.91764	8.30E-07
578	1.91706	8.06E-07
580	1.91648	7.84E-07
582	1.91591	7.64E-07
584	1.91535	7.45E-07
586	1.9148	7.28E-07
588	1.91425	7.12E-07
590	1.9137	6.98E-07
592	1.91317	6.85E-07
594	1.91264	6.72E-07
596	1.91211	6.61E-07
598	1.91159	6.51E-07
600	1.91108	6.41E-07
602	1.91057	6.32E-07
604	1.91007	6.24E-07
606	1.90958	6.17E-07
608	1.90908	6.10E-07
610	1.9086	6.04E-07
612	1.90812	5.98E-07
614	1.90764	5.93E-07
616	1.90717	5.88E-07
618	1.90671	5.84E-07
620	1.90625	5.80E-07
622	1.9058	5.77E-07
624	1.90535	5.73E-07
626	1.9049	5.71E-07
628	1.90446	5.68E-07
630	1.90402	5.66E-07
632	1.90359	5.63E-07
634	1.90317	5.62E-07
636	1.90274	5.60E-07
638	1.90233	5.59E-07
640	1.90191	5.57E-07
642	1.9015	5.56E-07
644	1.9011	5.55E-07
646	1.9007	5.55E-07
648	1.9003	5.54E-07
650	1.89991	5.53E-07
652	1.89952	5.53E-07
654	1.89913	5.53E-07
656	1.89875	5.53E-07
658	1.89837	5.53E-07
660	1.898	5.53E-07
662	1.89763	5.53E-07
664	1.89726	5.53E-07
666	1.8969	5.53E-07
668	1.89654	5.54E-07
670	1.89619	5.54E-07
672	1.89584	5.55E-07
674	1.89549	5.55E-07
676	1.89514	5.56E-07
678	1.8948	5.57E-07
680	1.89446	5.57E-07
682	1.89413	5.58E-07
684	1.89379	5.59E-07
686	1.89346	5.60E-07
688	1.89314	5.61E-07
690	1.89281	5.62E-07
692	1.8925	5.63E-07
694	1.89218	5.64E-07
696	1.89186	5.65E-07
698	1.89155	5.66E-07
700	1.89125	5.67E-07
702	1.89094	5.68E-07
704	1.89064	5.69E-07
706	1.89034	5.70E-07
708	1.89004	5.72E-07
710	1.88975	5.73E-07
712	1.88946	5.74E-07
714	1.88917	5.75E-07
716	1.88888	5.77E-07
718	1.8886	5.78E-07
720	1.88832	5.79E-07
722	1.88804	5.81E-07
724	1.88776	5.82E-07
726	1.88749	5.83E-07
728	1.88722	5.85E-07
730	1.88695	5.86E-07
732	1.88668	5.87E-07
734	1.88642	5.89E-07
736	1.88616	5.90E-07
738	1.8859	5.92E-07
740	1.88564	5.93E-07
742	1.88538	5.94E-07
744	1.88513	5.96E-07
746	1.88488	5.97E-07
748	1.88463	5.99E-07
750	1.88439	6.00E-07
752	1.88414	6.02E-07
754	1.8839	6.03E-07
756	1.88366	6.05E-07
758	1.88342	6.06E-07
760	1.88319	6.07E-07
762	1.88295	6.09E-07
764	1.88272	6.10E-07
766	1.88249	6.12E-07
768	1.88226	6.13E-07
770	1.88203	6.15E-07
772	1.88181	6.16E-07
774	1.88159	6.18E-07
776	1.88137	6.19E-07
778	1.88115	6.21E-07
780	1.88093	6.23E-07
782	1.88072	6.24E-07
784	1.8805	6.26E-07
786	1.88029	6.27E-07
788	1.88008	6.29E-07
790	1.87987	6.30E-07
792	1.87966	6.32E-07
794	1.87946	6.33E-07
796	1.87926	6.35E-07
798	1.87905	6.36E-07
800	1.87885	6.38E-07
802	1.87866	6.39E-07
804	1.87846	6.41E-07
806	1.87826	6.43E-07
808	1.87807	6.44E-07
810	1.87788	6.46E-07
812	1.87769	6.47E-07
814	1.8775	6.49E-07
816	1.87731	6.50E-07
818	1.87712	6.52E-07
820	1.87694	6.53E-07
822	1.87675	6.55E-07
824	1.87657	6.57E-07
826	1.87639	6.58E-07
828	1.87621	6.60E-07
830	1.87603	6.61E-07
832	1.87586	6.63E-07
834	1.87568	6.64E-07
836	1.87551	6.66E-07
838	1.87533	6.68E-07
840	1.87516	6.69E-07
842	1.87499	6.71E-07
844	1.87482	6.72E-07
846	1.87466	6.74E-07
848	1.87449	6.75E-07
850	1.87433	6.77E-07
852	1.87416	6.79E-07
854	1.874	6.80E-07
856	1.87384	6.82E-07
858	1.87368	6.83E-07
860	1.87352	6.85E-07
862	1.87336	6.86E-07
864	1.8732	6.88E-07
866	1.87305	6.90E-07
868	1.87289	6.91E-07
870	1.87274	6.93E-07
872	1.87259	6.94E-07
874	1.87244	6.96E-07
876	1.87229	6.97E-07
878	1.87214	6.99E-07
880	1.87199	7.01E-07
882	1.87184	7.02E-07
884	1.8717	7.04E-07
886	1.87155	7.05E-07
888	1.87141	7.07E-07
890	1.87127	7.09E-07
892	1.87112	7.10E-07
894	1.87098	7.12E-07
896	1.87084	7.13E-07
898	1.87071	7.15E-07
900	1.87057	7.16E-07
902	1.87043	7.18E-07
904	1.8703	7.20E-07
906	1.87016	7.21E-07
908	1.87003	7.23E-07
910	1.86989	7.24E-07
912	1.86976	7.26E-07
914	1.86963	7.28E-07
916	1.8695	7.29E-07
918	1.86937	7.31E-07
920	1.86924	7.32E-07
922	1.86911	7.34E-07
924	1.86899	7.35E-07
926	1.86886	7.37E-07
928	1.86874	7.39E-07
930	1.86861	7.40E-07
932	1.86849	7.42E-07
934	1.86837	7.43E-07
936	1.86824	7.45E-07
938	1.86812	7.47E-07
940	1.868	7.48E-07
942	1.86788	7.50E-07
944	1.86777	7.51E-07
946	1.86765	7.53E-07
948	1.86753	7.55E-07
950	1.86741	7.56E-07
952	1.8673	7.58E-07
954	1.86718	7.59E-07
956	1.86707	7.61E-07
958	1.86696	7.62E-07
960	1.86684	7.64E-07
962	1.86673	7.66E-07
964	1.86662	7.67E-07
966	1.86651	7.69E-07
968	1.8664	7.70E-07
970	1.86629	7.72E-07
972	1.86619	7.74E-07
974	1.86608	7.75E-07
976	1.86597	7.77E-07
978	1.86586	7.78E-07
980	1.86576	7.80E-07
982	1.86565	7.82E-07
984	1.86555	7.83E-07
986	1.86545	7.85E-07
988	1.86534	7.86E-07
990	1.86524	7.88E-07
992	1.86514	7.89E-07
994	1.86504	7.91E-07
996	1.86494	7.93E-07
998	1.86484	7.94E-07
1000	1.86474	7.96E-07
1002	1.86464	7.97E-07
1004	1.86455	7.99E-07
1006	1.86445	8.01E-07
1008	1.86435	8.02E-07
1010	1.86426	8.04E-07
1012	1.86416	8.05E-07
1014	1.86407	8.07E-07
1016	1.86397	8.09E-07
1018	1.86388	8.10E-07
1020	1.86378	8.12E-07
1022	1.86369	8.13E-07
1024	1.8636	8.15E-07
1026	1.86351	8.17E-07
1028	1.86342	8.18E-07
1030	1.86333	8.20E-07
1032	1.86324	8.21E-07
1034	1.86315	8.23E-07
1036	1.86306	8.24E-07
1038	1.86297	8.26E-07
1040	1.86288	8.28E-07
1042	1.8628	8.29E-07
1044	1.86271	8.31E-07
1046	1.86263	8.32E-07
1048	1.86254	8.34E-07
1050	1.86245	8.36E-07
1052	1.86237	8.37E-07
1054	1.86229	8.39E-07
1056	1.8622	8.40E-07
1058	1.86212	8.42E-07
1060	1.86204	8.44E-07
1062	1.86195	8.45E-07
1064	1.86187	8.47E-07
1066	1.86179	8.48E-07
1068	1.86171	8.50E-07
1070	1.86163	8.52E-07
1072	1.86155	8.53E-07
1074	1.86147	8.55E-07
1076	1.86139	8.56E-07
1078	1.86132	8.58E-07
1080	1.86124	8.59E-07
1082	1.86116	8.61E-07
1084	1.86108	8.63E-07
1086	1.86101	8.64E-07
1088	1.86093	8.66E-07
1090	1.86085	8.67E-07
1092	1.86078	8.69E-07
1094	1.8607	8.71E-07
1096	1.86063	8.72E-07
1098	1.86056	8.74E-07
1100	1.86048	8.75E-07
1102	1.86041	8.77E-07
1104	1.86034	8.79E-07
1106	1.86026	8.80E-07
1108	1.86019	8.82E-07
1110	1.86012	8.83E-07
1112	1.86005	8.85E-07
1114	1.85998	8.87E-07
1116	1.85991	8.88E-07
1118	1.85984	8.90E-07
1120	1.85977	8.91E-07
1122	1.8597	8.93E-07
1124	1.85963	8.94E-07
1126	1.85956	8.96E-07
1128	1.8595	8.98E-07
1130	1.85943	8.99E-07
1132	1.85936	9.01E-07
1134	1.85929	9.02E-07
1136	1.85923	9.04E-07
1138	1.85916	9.06E-07
1140	1.85909	9.07E-07
1142	1.85903	9.09E-07
1144	1.85896	9.10E-07
1146	1.8589	9.12E-07
1148	1.85883	9.14E-07
1150	1.85877	9.15E-07
1152	1.85871	9.17E-07
1154	1.85864	9.18E-07
1156	1.85858	9.20E-07
1158	1.85852	9.22E-07
1160	1.85846	9.23E-07
1162	1.85839	9.25E-07
1164	1.85833	9.26E-07
1166	1.85827	9.28E-07
1168	1.85821	9.29E-07
1170	1.85815	9.31E-07
1172	1.85809	9.33E-07
1174	1.85803	9.34E-07
1176	1.85797	9.36E-07
1178	1.85791	9.37E-07
1180	1.85785	9.39E-07
1182	1.85779	9.41E-07
1184	1.85773	9.42E-07
1186	1.85767	9.44E-07
1188	1.85762	9.45E-07
1190	1.85756	9.47E-07
1192	1.8575	9.49E-07
1194	1.85744	9.50E-07
1196	1.85739	9.52E-07
1198	1.85733	9.53E-07
1200	1.85727	9.55E-07
1202	1.85722	9.57E-07
1204	1.85716	9.58E-07
1206	1.85711	9.60E-07
1208	1.85705	9.61E-07
1210	1.857	9.63E-07
1212	1.85694	9.64E-07
1214	1.85689	9.66E-07
1216	1.85683	9.68E-07
1218	1.85678	9.69E-07
1220	1.85673	9.71E-07
1222	1.85667	9.72E-07
1224	1.85662	9.74E-07
1226	1.85657	9.76E-07
1228	1.85652	9.77E-07
1230	1.85646	9.79E-07
1232	1.85641	9.80E-07
1234	1.85636	9.82E-07
1236	1.85631	9.84E-07
1238	1.85626	9.85E-07
1240	1.85621	9.87E-07
1242	1.85616	9.88E-07
1244	1.85611	9.90E-07
1246	1.85606	9.92E-07
1248	1.85601	9.93E-07
1250	1.85596	9.95E-07
1252	1.85591	9.96E-07
1254	1.85586	9.98E-07
1256	1.85581	1.00E-06
1258	1.85576	1.00E-06
1260	1.85571	1.00E-06
1262	1.85567	1.00E-06
1264	1.85562	1.01E-06
1266	1.85557	1.01E-06
1268	1.85552	1.01E-06
1270	1.85548	1.01E-06
1272	1.85543	1.01E-06
1274	1.85538	1.01E-06
1276	1.85534	1.02E-06
1278	1.85529	1.02E-06
1280	1.85524	1.02E-06
1282	1.8552	1.02E-06
1284	1.85515	1.02E-06
1286	1.85511	1.02E-06
1288	1.85506	1.02E-06
1290	1.85502	1.03E-06
1292	1.85497	1.03E-06
1294	1.85493	1.03E-06
1296	1.85488	1.03E-06
1298	1.85484	1.03E-06
1300	1.85479	1.03E-06