// thickness-independent fraction of light power (for rudimentary optics) between 0 and 1
simple transmission coefficient:
1

// wavelength-independent absorption coefficient 'a' according to I(z)=I0*exp(-a*z) in [1/m]
lambert beer absorption coefficient:
0

// three-column refractive data for TMM calculations with wavelength [nm], n, k (must be tab-separated)
refractive data:
300	2.25183	0.3622
302	2.24242	0.332148
304	2.23335	0.303936
306	2.22459	0.27749
308	2.21613	0.252736
310	2.20795	0.229604
312	2.20004	0.208024
314	2.19239	0.187929
316	2.18498	0.169253
318	2.17781	0.151933
320	2.17086	0.135905
322	2.16413	0.121109
324	2.1576	0.107485
326	2.15126	0.0949757
328	2.14512	0.0835247
330	2.13915	0.0730769
332	2.13335	0.0635786
334	2.12772	0.0549776
336	2.12225	0.047223
338	2.11693	0.0402651
340	2.11176	0.0340554
342	2.10672	0.028546
344	2.10182	0.0236896
346	2.09705	0.019438
348	2.09241	0.0157404
350	2.08788	0.0125407
352	2.08347	0.00977373
354	2.07917	0.00736469
356	2.07498	0.00524461
358	2.0709	0.00340269
360	2.06691	0.00194174
362	2.06302	0.000981603
364	2.05922	0.000470131
366	2.05552	0.000230854
368	2.0519	0.000120699
370	2.04836	6.69E-05
372	2.04491	3.85E-05
374	2.04153	2.26E-05
376	2.03824	1.34E-05
378	2.03501	7.97E-06
380	2.03186	4.78E-06
382	2.02877	2.88E-06
384	2.02576	1.74E-06
386	2.02281	1.06E-06
388	2.01992	6.47E-07
390	2.01709	3.98E-07
392	2.01432	2.46E-07
394	2.01162	1.53E-07
396	2.00896	9.51E-08
398	2.00636	5.96E-08
400	2.00382	3.75E-08
402	2.00132	2.37E-08
404	1.99887	1.51E-08
406	1.99648	9.63E-09
408	1.99413	6.18E-09
410	1.99182	3.98E-09
412	1.98956	2.57E-09
414	1.98735	1.67E-09
416	1.98517	1.09E-09
418	1.98304	7.14E-10
420	1.98095	4.69E-10
422	1.97889	3.10E-10
424	1.97688	2.05E-10
426	1.9749	1.37E-10
428	1.97296	9.12E-11
430	1.97105	6.12E-11
432	1.96917	4.12E-11
434	1.96733	2.78E-11
436	1.96553	1.88E-11
438	1.96375	1.28E-11
440	1.96201	8.75E-12
442	1.96029	6.00E-12
444	1.9586	4.12E-12
446	1.95695	2.84E-12
448	1.95532	1.97E-12
450	1.95372	1.37E-12
452	1.95214	9.52E-13
454	1.9506	6.65E-13
456	1.94907	4.66E-13
458	1.94758	3.28E-13
460	1.9461	2.31E-13
462	1.94465	1.64E-13
464	1.94323	1.16E-13
466	1.94182	8.27E-14
468	1.94044	5.90E-14
470	1.93908	4.22E-14
472	1.93775	3.03E-14
474	1.93643	2.18E-14
476	1.93513	1.58E-14
478	1.93386	1.14E-14
480	1.9326	8.29E-15
482	1.93136	6.03E-15
484	1.93014	4.40E-15
486	1.92894	3.22E-15
488	1.92776	2.36E-15
490	1.92659	1.74E-15
492	1.92544	1.28E-15
494	1.92431	9.47E-16
496	1.9232	7.02E-16
498	1.9221	5.21E-16
500	1.92102	3.88E-16
502	1.91995	2.90E-16
504	1.9189	2.17E-16
506	1.91786	1.63E-16
508	1.91684	1.22E-16
510	1.91583	9.20E-17
512	1.91484	6.95E-17
514	1.91386	5.25E-17
516	1.91289	3.98E-17
518	1.91194	3.03E-17
520	1.911	2.31E-17
522	1.91007	1.76E-17
524	1.90916	1.35E-17
526	1.90825	1.03E-17
528	1.90736	7.91E-18
530	1.90649	6.09E-18
532	1.90562	4.69E-18
534	1.90476	3.62E-18
536	1.90392	2.81E-18
538	1.90309	2.18E-18
540	1.90226	1.69E-18
542	1.90145	1.32E-18
544	1.90065	1.03E-18
546	1.89986	8.01E-19
548	1.89908	6.27E-19
550	1.89831	4.91E-19
552	1.89755	3.86E-19
554	1.8968	3.04E-19
556	1.89606	2.39E-19
558	1.89532	1.89E-19
560	1.8946	1.49E-19
562	1.89388	1.18E-19
564	1.89318	9.39E-20
566	1.89248	7.47E-20
568	1.89179	5.94E-20
570	1.89111	4.74E-20
572	1.89044	3.79E-20
574	1.88977	3.03E-20
576	1.88912	2.43E-20
578	1.88847	1.95E-20
580	1.88783	1.56E-20
582	1.8872	1.26E-20
584	1.88657	1.02E-20
586	1.88595	8.19E-21
588	1.88534	6.62E-21
590	1.88474	5.36E-21
592	1.88414	4.35E-21
594	1.88355	3.53E-21
596	1.88296	2.87E-21
598	1.88239	2.34E-21
600	1.88182	1.91E-21
602	1.88125	1.56E-21
604	1.8807	1.27E-21
606	1.88014	1.04E-21
608	1.8796	8.54E-22
610	1.87906	7.01E-22
612	1.87853	5.76E-22
614	1.878	4.74E-22
616	1.87748	3.91E-22
618	1.87696	3.22E-22
620	1.87645	2.66E-22
622	1.87595	2.20E-22
624	1.87545	1.82E-22
626	1.87495	1.51E-22
628	1.87447	1.26E-22
630	1.87398	1.04E-22
632	1.8735	8.68E-23
634	1.87303	7.23E-23
636	1.87256	6.03E-23
638	1.8721	5.04E-23
640	1.87164	4.21E-23
642	1.87119	3.52E-23
644	1.87074	2.95E-23
646	1.87029	2.48E-23
648	1.86985	2.08E-23
650	1.86942	1.75E-23
652	1.86899	1.47E-23
654	1.86856	1.24E-23
656	1.86814	1.04E-23
658	1.86772	8.82E-24
660	1.86731	7.45E-24
662	1.8669	6.30E-24
664	1.86649	5.34E-24
666	1.86609	4.52E-24
668	1.8657	3.84E-24
670	1.8653	3.26E-24
672	1.86491	2.77E-24
674	1.86453	2.36E-24
676	1.86415	2.01E-24
678	1.86377	1.71E-24
680	1.86339	1.46E-24
682	1.86302	1.25E-24
684	1.86265	1.07E-24
686	1.86229	9.14E-25
688	1.86193	7.83E-25
690	1.86157	6.71E-25
692	1.86122	5.76E-25
694	1.86087	4.95E-25
696	1.86052	4.25E-25
698	1.86018	3.66E-25
700	1.85984	3.15E-25
702	1.8595	2.72E-25
704	1.85917	2.34E-25
706	1.85884	2.02E-25
708	1.85851	1.75E-25
710	1.85819	1.51E-25
712	1.85786	1.31E-25
714	1.85755	1.13E-25
716	1.85723	9.82E-26
718	1.85692	8.52E-26
720	1.85661	7.40E-26
722	1.8563	6.43E-26
724	1.856	5.59E-26
726	1.85569	4.87E-26
728	1.85539	4.24E-26
730	1.8551	3.69E-26
732	1.8548	3.22E-26
734	1.85451	2.81E-26
736	1.85422	2.46E-26
738	1.85394	2.15E-26
740	1.85365	1.88E-26
742	1.85337	1.65E-26
744	1.8531	1.44E-26
746	1.85282	1.26E-26
748	1.85255	1.11E-26
750	1.85227	9.75E-27
752	1.852	8.56E-27
754	1.85174	7.53E-27
756	1.85147	6.63E-27
758	1.85121	5.83E-27
760	1.85095	5.14E-27
762	1.85069	4.53E-27
764	1.85044	4.00E-27
766	1.85019	3.53E-27
768	1.84993	3.12E-27
770	1.84968	2.76E-27
772	1.84944	2.44E-27
774	1.84919	2.16E-27
776	1.84895	1.91E-27
778	1.84871	1.69E-27
780	1.84847	1.50E-27
782	1.84823	1.33E-27
784	1.848	1.18E-27
786	1.84776	1.05E-27
788	1.84753	9.35E-28
790	1.8473	8.32E-28
792	1.84708	7.41E-28
794	1.84685	6.60E-28
796	1.84663	5.88E-28
798	1.84641	5.24E-28
800	1.84619	4.68E-28
802	1.84597	4.17E-28
804	1.84575	3.73E-28
806	1.84554	3.33E-28
808	1.84532	2.98E-28
810	1.84511	2.67E-28
812	1.8449	2.39E-28
814	1.84469	2.14E-28
816	1.84449	1.92E-28
818	1.84428	1.72E-28
820	1.84408	1.54E-28
822	1.84388	1.38E-28
824	1.84368	1.24E-28
826	1.84348	1.12E-28
828	1.84328	1.00E-28
830	1.84308	9.03E-29
832	1.84289	8.12E-29
834	1.8427	7.31E-29
836	1.84251	6.59E-29
838	1.84232	5.94E-29
840	1.84213	5.36E-29
842	1.84194	4.83E-29
844	1.84176	4.36E-29
846	1.84157	3.94E-29
848	1.84139	3.56E-29
850	1.84121	3.22E-29
852	1.84103	2.91E-29
854	1.84085	2.63E-29
856	1.84067	2.38E-29
858	1.8405	2.16E-29
860	1.84032	1.96E-29
862	1.84015	1.77E-29
864	1.83998	1.61E-29
866	1.83981	1.46E-29
868	1.83964	1.33E-29
870	1.83947	1.20E-29
872	1.8393	1.09E-29
874	1.83914	9.94E-30
876	1.83897	9.04E-30
878	1.83881	8.23E-30
880	1.83865	7.49E-30
882	1.83848	6.82E-30
884	1.83832	6.21E-30
886	1.83817	5.66E-30
888	1.83801	5.16E-30
890	1.83785	4.71E-30
892	1.8377	4.30E-30
894	1.83754	3.92E-30
896	1.83739	3.58E-30
898	1.83724	3.27E-30
900	1.83708	2.99E-30
902	1.83693	2.74E-30
904	1.83679	2.50E-30
906	1.83664	2.29E-30
908	1.83649	2.10E-30
910	1.83635	1.92E-30
912	1.8362	1.76E-30
914	1.83606	1.61E-30
916	1.83591	1.48E-30
918	1.83577	1.36E-30
920	1.83563	1.24E-30
922	1.83549	1.14E-30
924	1.83535	1.05E-30
926	1.83521	9.64E-31
928	1.83508	8.86E-31
930	1.83494	8.14E-31
932	1.83481	7.49E-31
934	1.83467	6.89E-31
936	1.83454	6.34E-31
938	1.83441	5.84E-31
940	1.83427	5.38E-31
942	1.83414	4.95E-31
944	1.83401	4.57E-31
946	1.83388	4.21E-31
948	1.83376	3.88E-31
950	1.83363	3.58E-31
952	1.8335	3.31E-31
954	1.83338	3.05E-31
956	1.83325	2.82E-31
958	1.83313	2.60E-31
960	1.833	2.41E-31
962	1.83288	2.22E-31
964	1.83276	2.06E-31
966	1.83264	1.90E-31
968	1.83252	1.76E-31
970	1.8324	1.63E-31
972	1.83228	1.51E-31
974	1.83216	1.40E-31
976	1.83205	1.30E-31
978	1.83193	1.20E-31
980	1.83182	1.11E-31
982	1.8317	1.03E-31
984	1.83159	9.58E-32
986	1.83147	8.89E-32
988	1.83136	8.25E-32
990	1.83125	7.66E-32
992	1.83114	7.12E-32
994	1.83103	6.61E-32
996	1.83092	6.15E-32
998	1.83081	5.72E-32
1000	1.8307	5.32E-32
1002	1.83059	4.94E-32
1004	1.83049	4.60E-32
1006	1.83038	4.28E-32
1008	1.83027	3.99E-32
1010	1.83017	3.71E-32
1012	1.83007	3.46E-32
1014	1.82996	3.22E-32
1016	1.82986	3.01E-32
1018	1.82976	2.80E-32
1020	1.82965	2.61E-32
1022	1.82955	2.44E-32
1024	1.82945	2.28E-32
1026	1.82935	2.12E-32
1028	1.82925	1.98E-32
1030	1.82915	1.85E-32
1032	1.82906	1.73E-32
1034	1.82896	1.62E-32
1036	1.82886	1.51E-32
1038	1.82877	1.41E-32
1040	1.82867	1.32E-32
1042	1.82857	1.24E-32
1044	1.82848	1.16E-32
1046	1.82839	1.08E-32
1048	1.82829	1.01E-32
1050	1.8282	9.48E-33
1052	1.82811	8.88E-33
1054	1.82802	8.32E-33
1056	1.82792	7.80E-33
1058	1.82783	7.31E-33
1060	1.82774	6.85E-33
1062	1.82765	6.43E-33
1064	1.82756	6.03E-33
1066	1.82748	5.66E-33
1068	1.82739	5.31E-33
1070	1.8273	4.98E-33
1072	1.82721	4.68E-33
1074	1.82713	4.39E-33
1076	1.82704	4.13E-33
1078	1.82695	3.88E-33
1080	1.82687	3.64E-33
1082	1.82678	3.43E-33
1084	1.8267	3.22E-33
1086	1.82662	3.03E-33
1088	1.82653	2.85E-33
1090	1.82645	2.68E-33
1092	1.82637	2.52E-33
1094	1.82629	2.38E-33
1096	1.82621	2.24E-33
1098	1.82612	2.11E-33
1100	1.82604	1.98E-33
1102	1.82596	1.87E-33
1104	1.82588	1.76E-33
1106	1.82581	1.66E-33
1108	1.82573	1.56E-33
1110	1.82565	1.48E-33
1112	1.82557	1.39E-33
1114	1.82549	1.31E-33
1116	1.82542	1.24E-33
1118	1.82534	1.17E-33
1120	1.82526	1.10E-33
1122	1.82519	1.04E-33
1124	1.82511	9.84E-34
1126	1.82504	9.30E-34
1128	1.82496	8.78E-34
1130	1.82489	8.30E-34
1132	1.82482	7.84E-34
1134	1.82474	7.41E-34
1136	1.82467	7.01E-34
1138	1.8246	6.63E-34
1140	1.82453	6.27E-34
1142	1.82446	5.93E-34
1144	1.82438	5.61E-34
1146	1.82431	5.31E-34
1148	1.82424	5.03E-34
1150	1.82417	4.76E-34
1152	1.8241	4.51E-34
1154	1.82403	4.27E-34
1156	1.82397	4.05E-34
1158	1.8239	3.83E-34
1160	1.82383	3.63E-34
1162	1.82376	3.44E-34
1164	1.82369	3.27E-34
1166	1.82363	3.10E-34
1168	1.82356	2.94E-34
1170	1.82349	2.79E-34
1172	1.82343	2.64E-34
1174	1.82336	2.51E-34
1176	1.8233	2.38E-34
1178	1.82323	2.26E-34
1180	1.82317	2.15E-34
1182	1.8231	2.04E-34
1184	1.82304	1.94E-34
1186	1.82297	1.84E-34
1188	1.82291	1.75E-34
1190	1.82285	1.66E-34
1192	1.82279	1.58E-34
1194	1.82272	1.50E-34
1196	1.82266	1.43E-34
1198	1.8226	1.36E-34
1200	1.82254	1.29E-34
1202	1.82248	1.23E-34
1204	1.82242	1.17E-34
1206	1.82236	1.11E-34
1208	1.8223	1.06E-34
1210	1.82224	1.01E-34
1212	1.82218	9.59E-35
1214	1.82212	9.13E-35
1216	1.82206	8.69E-35
1218	1.822	8.28E-35
1220	1.82194	7.89E-35
1222	1.82188	7.52E-35
1224	1.82183	7.16E-35
1226	1.82177	6.83E-35
1228	1.82171	6.51E-35
1230	1.82165	6.21E-35
1232	1.8216	5.92E-35
1234	1.82154	5.64E-35
1236	1.82149	5.38E-35
1238	1.82143	5.14E-35
1240	1.82137	4.90E-35
1242	1.82132	4.68E-35
1244	1.82126	4.47E-35
1246	1.82121	4.26E-35
1248	1.82116	4.07E-35
1250	1.8211	3.89E-35
1252	1.82105	3.71E-35
1254	1.82099	3.55E-35
1256	1.82094	3.39E-35
1258	1.82089	3.24E-35
1260	1.82083	3.09E-35
1262	1.82078	2.96E-35
1264	1.82073	2.83E-35
1266	1.82068	2.70E-35
1268	1.82063	2.58E-35
1270	1.82057	2.47E-35
1272	1.82052	2.36E-35
1274	1.82047	2.26E-35
1276	1.82042	2.16E-35
1278	1.82037	2.07E-35
1280	1.82032	1.98E-35
1282	1.82027	1.90E-35
1284	1.82022	1.81E-35
1286	1.82017	1.74E-35
1288	1.82012	1.66E-35
1290	1.82007	1.59E-35
1292	1.82002	1.53E-35
1294	1.81998	1.46E-35
1296	1.81993	1.40E-35
1298	1.81988	1.34E-35
1300	1.81983	1.29E-35