// thickness-independent fraction of light power (for rudimentary optics) between 0 and 1
simple transmission coefficient:
1

// wavelength-independent absorption coefficient 'a' according to I(z)=I0*exp(-a*z) in [1/m]
lambert beer absorption coefficient:
0

// three-column refractive data for TMM calculations with wavelength [nm], n, k (must be tab-separated)
refractive data:
300	2.34594	0.4652
302	2.35267	0.45384
304	2.35883	0.4423
306	2.36443	0.43061
308	2.36948	0.4188
310	2.37397	0.40692
312	2.37791	0.39501
314	2.38132	0.3831
316	2.38421	0.37121
318	2.3866	0.35938
320	2.3885	0.34763
322	2.38994	0.33599
324	2.39092	0.32448
326	2.39147	0.31313
328	2.39161	0.30194
330	2.39135	0.29094
332	2.39073	0.28014
334	2.38976	0.26955
336	2.38846	0.25917
338	2.38685	0.24903
340	2.38495	0.23913
342	2.38277	0.22946
344	2.38035	0.22004
346	2.37769	0.21088
348	2.37481	0.20196
350	2.37174	0.19329
352	2.36848	0.18488
354	2.36505	0.17672
356	2.36146	0.16881
358	2.35774	0.16115
360	2.35388	0.15373
362	2.34991	0.14656
364	2.34584	0.13962
366	2.34167	0.13292
368	2.33743	0.12645
370	2.3331	0.12021
372	2.32872	0.11419
374	2.32428	0.10838
376	2.31979	0.1028
378	2.31526	0.09741
380	2.31071	0.09224
382	2.30612	0.08726
384	2.30152	0.08247
386	2.2969	0.07787
388	2.29227	0.07346
390	2.28764	0.06922
392	2.28301	0.06516
394	2.27838	0.06127
396	2.27376	0.05754
398	2.26916	0.05397
400	2.26457	0.05056
402	2.26	0.0473
404	2.25545	0.04419
406	2.25093	0.04121
408	2.24643	0.03838
410	2.24196	0.03568
412	2.23753	0.03311
414	2.23313	0.03067
416	2.22876	0.02836
418	2.22443	0.02616
420	2.22014	0.02408
422	2.21589	0.02211
424	2.21169	0.02025
426	2.20752	0.0185
428	2.2034	0.01685
430	2.19933	0.0153
432	2.1953	0.01385
434	2.19132	0.01249
436	2.18739	0.01123
438	2.18351	0.01006
440	2.17968	0.00897
442	2.1759	0.00797
444	2.17218	0.00705
446	2.16851	0.00622
448	2.16489	0.00545
450	2.16133	0.00477
452	2.15783	0.00416
454	2.15438	0.00362
456	2.151	0.00315
458	2.14767	0.00275
460	2.14441	0.00242
462	2.14122	0.00215
464	2.1381	0.00194
466	2.13504	0.0018
468	2.13207	0.00171
470	2.12918	0.00168
472	2.1264	0.0017
474	2.12372	0.00172
476	2.12112	0.00174
478	2.11859	0.00176
480	2.11612	0.00179
482	2.1137	0.00181
484	2.11134	0.00183
486	2.10902	0.00186
488	2.10675	0.00188
490	2.10453	0.00191
492	2.10234	0.00193
494	2.10019	0.00196
496	2.09808	0.00198
498	2.096	0.00201
500	2.09396	0.00204
502	2.09195	0.00206
504	2.08997	0.00209
506	2.08801	0.00212
508	2.08609	0.00214
510	2.08419	0.00217
512	2.08232	0.0022
514	2.08047	0.00223
516	2.07864	0.00225
518	2.07684	0.00228
520	2.07506	0.00231
522	2.0733	0.00234
524	2.07156	0.00237
526	2.06985	0.0024
528	2.06815	0.00243
530	2.06646	0.00246
532	2.0648	0.00249
534	2.06315	0.00252
536	2.06152	0.00255
538	2.05991	0.00258
540	2.05831	0.00261
542	2.05672	0.00264
544	2.05515	0.00267
546	2.0536	0.0027
548	2.05206	0.00273
550	2.05053	0.00277
552	2.04901	0.0028
554	2.04751	0.00283
556	2.04601	0.00286
558	2.04453	0.0029
560	2.04307	0.00293
562	2.04161	0.00296
564	2.04016	0.003
566	2.03872	0.00303
568	2.0373	0.00307
570	2.03588	0.0031
572	2.03447	0.00314
574	2.03308	0.00317
576	2.03169	0.00321
578	2.03031	0.00324
580	2.02893	0.00328
582	2.02757	0.00332
584	2.02621	0.00335
586	2.02486	0.00339
588	2.02352	0.00343
590	2.02219	0.00346
592	2.02086	0.0035
594	2.01954	0.00354
596	2.01823	0.00358
598	2.01692	0.00362
600	2.01562	0.00365
602	2.01433	0.00369
604	2.01304	0.00373
606	2.01176	0.00377
608	2.01048	0.00381
610	2.00921	0.00385
612	2.00795	0.00389
614	2.00668	0.00393
616	2.00543	0.00397
618	2.00418	0.00401
620	2.00293	0.00406
622	2.00169	0.0041
624	2.00045	0.00414
626	1.99922	0.00418
628	1.99799	0.00423
630	1.99677	0.00427
632	1.99555	0.00431
634	1.99433	0.00436
636	1.99312	0.0044
638	1.99191	0.00444
640	1.9907	0.00449
642	1.9895	0.00453
644	1.9883	0.00458
646	1.9871	0.00462
648	1.98591	0.00467
650	1.98472	0.00472
652	1.98353	0.00476
654	1.98235	0.00481
656	1.98117	0.00486
658	1.97999	0.0049
660	1.97881	0.00495
662	1.97764	0.005
664	1.97646	0.00505
666	1.97529	0.0051
668	1.97413	0.00515
670	1.97296	0.0052
672	1.9718	0.00525
674	1.97064	0.0053
676	1.96948	0.00535
678	1.96832	0.0054
680	1.96716	0.00545
682	1.96601	0.0055
684	1.96486	0.00555
686	1.96371	0.0056
688	1.96256	0.00566
690	1.96141	0.00571
692	1.96026	0.00576
694	1.95911	0.00581
696	1.95797	0.00587
698	1.95683	0.00592
700	1.95568	0.00598
702	1.95454	0.00603
704	1.9534	0.00609
706	1.95226	0.00614
708	1.95113	0.0062
710	1.94999	0.00625
712	1.94885	0.00631
714	1.94771	0.00637
716	1.94658	0.00643
718	1.94544	0.00648
720	1.94431	0.00654
722	1.94318	0.0066
724	1.94204	0.00666
726	1.94091	0.00672
728	1.93978	0.00678
730	1.93865	0.00684
732	1.93751	0.0069
734	1.93638	0.00696
736	1.93525	0.00702
738	1.93412	0.00708
740	1.93299	0.00714
742	1.93186	0.0072
744	1.93072	0.00727
746	1.92959	0.00733
748	1.92846	0.00739
750	1.92733	0.00746
752	1.9262	0.00752
754	1.92507	0.00759
756	1.92394	0.00765
758	1.9228	0.00772
760	1.92167	0.00778
762	1.92054	0.00785
764	1.91941	0.00791
766	1.91827	0.00798
768	1.91714	0.00805
770	1.91601	0.00812
772	1.91487	0.00818
774	1.91374	0.00825
776	1.9126	0.00832
778	1.91146	0.00839
780	1.91033	0.00846
782	1.90919	0.00853
784	1.90805	0.0086
786	1.90691	0.00867
788	1.90577	0.00874
790	1.90463	0.00882
792	1.90349	0.00889
794	1.90235	0.00896
796	1.90121	0.00904
798	1.90006	0.00911
800	1.89892	0.00918
802	1.89778	0.00926
804	1.89663	0.00933
806	1.89548	0.00941
808	1.89433	0.00948
810	1.89319	0.00956
812	1.89203	0.00964
814	1.89088	0.00971
816	1.88973	0.00979
818	1.88858	0.00987
820	1.88742	0.00995
822	1.88627	0.01003
824	1.88511	0.01011
826	1.88395	0.01019
828	1.88279	0.01027
830	1.88163	0.01035
832	1.88047	0.01043
834	1.87931	0.01051
836	1.87814	0.01059
838	1.87698	0.01068
840	1.87581	0.01076
842	1.87464	0.01084
844	1.87347	0.01093
846	1.8723	0.01101
848	1.87113	0.0111
850	1.86996	0.01118
852	1.86878	0.01127
854	1.8676	0.01135
856	1.86642	0.01144
858	1.86524	0.01153
860	1.86406	0.01162
862	1.86288	0.01171
864	1.86169	0.01179
866	1.86051	0.01188
868	1.85932	0.01197
870	1.85813	0.01206
872	1.85694	0.01216
874	1.85575	0.01225
876	1.85455	0.01234
878	1.85335	0.01243
880	1.85216	0.01252
882	1.85096	0.01262
884	1.84975	0.01271
886	1.84855	0.01281
888	1.84735	0.0129
890	1.84614	0.013
892	1.84493	0.01309
894	1.84372	0.01319
896	1.84251	0.01329
898	1.84129	0.01339
900	1.84007	0.01348
902	1.83886	0.01358
904	1.83764	0.01368
906	1.83641	0.01378
908	1.83519	0.01388
910	1.83396	0.01398
912	1.83274	0.01409
914	1.8315	0.01419
916	1.83027	0.01429
918	1.82904	0.01439
920	1.8278	0.0145
922	1.82656	0.0146
924	1.82532	0.01471
926	1.82408	0.01481
928	1.82284	0.01492
930	1.82159	0.01503
932	1.82034	0.01513
934	1.81909	0.01524
936	1.81784	0.01535
938	1.81658	0.01546
940	1.81532	0.01557
942	1.81406	0.01568
944	1.8128	0.01579
946	1.81154	0.0159
948	1.81027	0.01601
950	1.809	0.01613
952	1.80773	0.01624
954	1.80646	0.01635
956	1.80518	0.01647
958	1.8039	0.01658
960	1.80262	0.0167
962	1.80134	0.01681
964	1.80005	0.01693
966	1.79877	0.01705
968	1.79748	0.01717
970	1.79618	0.01728
972	1.79489	0.0174
974	1.79359	0.01752
976	1.79229	0.01765
978	1.79099	0.01777
980	1.78968	0.01789
982	1.78838	0.01801
984	1.78707	0.01813
986	1.78576	0.01826
988	1.78444	0.01838
990	1.78312	0.01851
992	1.7818	0.01863
994	1.78048	0.01876
996	1.77916	0.01889
998	1.77783	0.01902
1000	1.7765	0.01914
1002	1.77517	0.01927
1004	1.77383	0.0194
1006	1.77249	0.01953
1008	1.77115	0.01967
1010	1.76981	0.0198
1012	1.76847	0.01993
1014	1.76712	0.02006
1016	1.76577	0.0202
1018	1.76441	0.02033
1020	1.76306	0.02047
1022	1.7617	0.0206
1024	1.76033	0.02074
1026	1.75897	0.02088
1028	1.7576	0.02102
1030	1.75623	0.02116
1032	1.75486	0.0213
1034	1.75348	0.02144
1036	1.7521	0.02158
1038	1.75072	0.02172
1040	1.74934	0.02186
1042	1.74795	0.02201
1044	1.74656	0.02215
1046	1.74517	0.02229
1048	1.74377	0.02244
1050	1.74237	0.02259
1052	1.74097	0.02273
1054	1.73957	0.02288
1056	1.73816	0.02303
1058	1.73675	0.02318
1060	1.73533	0.02333
1062	1.73392	0.02348
1064	1.7325	0.02363
1066	1.73108	0.02379
1068	1.72965	0.02394
1070	1.72822	0.02409
1072	1.72679	0.02425
1074	1.72536	0.0244
1076	1.72392	0.02456
1078	1.72248	0.02472
1080	1.72103	0.02488
1082	1.71959	0.02504
1084	1.71814	0.0252
1086	1.71669	0.02536
1088	1.71523	0.02552
1090	1.71377	0.02568
1092	1.71231	0.02584
1094	1.71084	0.02601
1096	1.70937	0.02617
1098	1.7079	0.02634
1100	1.70643	0.02651
1102	1.70495	0.02667
1104	1.70347	0.02684
1106	1.70198	0.02701
1108	1.70049	0.02718
1110	1.699	0.02735
1112	1.69751	0.02752
1114	1.69601	0.0277
1116	1.69451	0.02787
1118	1.69301	0.02804
1120	1.6915	0.02822
1122	1.68999	0.0284
1124	1.68847	0.02857
1126	1.68695	0.02875
1128	1.68543	0.02893
1130	1.68391	0.02911
1132	1.68238	0.02929
1134	1.68085	0.02947
1136	1.67932	0.02966
1138	1.67778	0.02984
1140	1.67624	0.03002
1142	1.67469	0.03021
1144	1.67314	0.0304
1146	1.67159	0.03058
1148	1.67004	0.03077
1150	1.66848	0.03096
1152	1.66691	0.03115
1154	1.66535	0.03134
1156	1.66378	0.03154
1158	1.66221	0.03173
1160	1.66063	0.03192
1162	1.65905	0.03212
1164	1.65747	0.03232
1166	1.65588	0.03251
1168	1.65429	0.03271
1170	1.65269	0.03291
1172	1.6511	0.03311
1174	1.64949	0.03331
1176	1.64789	0.03352
1178	1.64628	0.03372
1180	1.64467	0.03392
1182	1.64305	0.03413
1184	1.64143	0.03434
1186	1.63981	0.03454
1188	1.63818	0.03475
1190	1.63655	0.03496
1192	1.63491	0.03517
1194	1.63327	0.03539
1196	1.63163	0.0356
1198	1.62998	0.03581
1200	1.62833	0.03603
1202	1.62668	0.03625
1204	1.62502	0.03646
1206	1.62336	0.03668
1208	1.62169	0.0369
1210	1.62002	0.03712
1212	1.61835	0.03735
1214	1.61667	0.03757
1216	1.61499	0.03779
1218	1.61331	0.03802
1220	1.61162	0.03825
1222	1.60992	0.03847
1224	1.60823	0.0387
1226	1.60653	0.03893
1228	1.60482	0.03917
1230	1.60311	0.0394
1232	1.6014	0.03963
1234	1.59968	0.03987
1236	1.59796	0.0401
1238	1.59623	0.04034
1240	1.5945	0.04058
1242	1.59277	0.04082
1244	1.59103	0.04106
1246	1.58929	0.04131
1248	1.58754	0.04155
1250	1.58579	0.0418
1252	1.58404	0.04204
1254	1.58228	0.04229
1256	1.58052	0.04254
1258	1.57875	0.04279
1260	1.57698	0.04304
1262	1.5752	0.04329
1264	1.57342	0.04355
1266	1.57164	0.04381
1268	1.56985	0.04406
1270	1.56806	0.04432
1272	1.56626	0.04458
1274	1.56446	0.04484
1276	1.56265	0.04511
1278	1.56084	0.04537
1280	1.55903	0.04563
1282	1.55721	0.0459
1284	1.55538	0.04617
1286	1.55356	0.04644
1288	1.55172	0.04671
1290	1.54989	0.04698
1292	1.54804	0.04726
1294	1.5462	0.04753
1296	1.54435	0.04781
1298	1.54249	0.04809
1300	1.54063	0.04837
1302	1.53877	0.04865
1304	1.5369	0.04893
1306	1.53503	0.04922
1308	1.53315	0.0495
1310	1.53126	0.04979
1312	1.52938	0.05008
1314	1.52749	0.05037
1316	1.52559	0.05066
1318	1.52369	0.05096
1320	1.52178	0.05125
1322	1.51987	0.05155
1324	1.51795	0.05185
1326	1.51603	0.05215
1328	1.51411	0.05245
1330	1.51218	0.05275
1332	1.51024	0.05306
1334	1.5083	0.05337
1336	1.50636	0.05367
1338	1.50441	0.05398
1340	1.50245	0.0543
1342	1.50049	0.05461
1344	1.49853	0.05492
1346	1.49656	0.05524
1348	1.49458	0.05556
1350	1.4926	0.05588
1352	1.49062	0.0562
1354	1.48863	0.05653
1356	1.48663	0.05685
1358	1.48463	0.05718
1360	1.48263	0.05751
1362	1.48062	0.05784
1364	1.4786	0.05817
1366	1.47658	0.05851
1368	1.47455	0.05885
1370	1.47252	0.05919
1372	1.47049	0.05953
1374	1.46845	0.05987
1376	1.4664	0.06021
1378	1.46435	0.06056
1380	1.46229	0.06091
1382	1.46023	0.06126
1384	1.45816	0.06161
1386	1.45608	0.06196
1388	1.454	0.06232
1390	1.45192	0.06268
1392	1.44983	0.06304
1394	1.44773	0.0634
1396	1.44563	0.06377
1398	1.44353	0.06413
1400	1.44141	0.0645
1402	1.4393	0.06487
1404	1.43717	0.06524
1406	1.43504	0.06562
1408	1.43291	0.066
1410	1.43077	0.06638
1412	1.42862	0.06676
1414	1.42647	0.06714
1416	1.42431	0.06753
1418	1.42215	0.06792
1420	1.41998	0.06831
1422	1.41781	0.0687
1424	1.41563	0.06909
1426	1.41344	0.06949
1428	1.41125	0.06989
1430	1.40905	0.07029
1432	1.40685	0.0707
1434	1.40464	0.0711
1436	1.40242	0.07151
1438	1.4002	0.07192
1440	1.39797	0.07234
1442	1.39573	0.07276
1444	1.39349	0.07317
1446	1.39125	0.0736
1448	1.38899	0.07402
1450	1.38674	0.07445
1452	1.38447	0.07488
1454	1.3822	0.07531
1456	1.37992	0.07574
1458	1.37764	0.07618
1460	1.37535	0.07662
1462	1.37305	0.07706
1464	1.37075	0.0775
1466	1.36844	0.07795
1468	1.36612	0.0784
1470	1.3638	0.07886
1472	1.36147	0.07931
1474	1.35914	0.07977
1476	1.35679	0.08023
1478	1.35444	0.0807
1480	1.35209	0.08116
1482	1.34973	0.08163
1484	1.34736	0.08211
1486	1.34498	0.08258
1488	1.3426	0.08306
1490	1.34021	0.08354
1492	1.33782	0.08403
1494	1.33542	0.08452
1496	1.33301	0.08501
1498	1.33059	0.0855
1500	1.32817	0.086
1502	1.32574	0.0865
1504	1.3233	0.08701
1506	1.32086	0.08751
1508	1.3184	0.08802
1510	1.31595	0.08854
1512	1.31348	0.08905
1514	1.31101	0.08957
1516	1.30853	0.0901
1518	1.30604	0.09062
1520	1.30355	0.09116
1522	1.30105	0.09169
1524	1.29854	0.09223
1526	1.29602	0.09277
1528	1.2935	0.09331
1530	1.29097	0.09386
1532	1.28843	0.09441
1534	1.28588	0.09497
1536	1.28333	0.09553
1538	1.28076	0.09609
1540	1.2782	0.09666
1542	1.27562	0.09723
1544	1.27303	0.0978
1546	1.27044	0.09838
1548	1.26784	0.09896
1550	1.26523	0.09955
1552	1.26262	0.10014
1554	1.25999	0.10074
1556	1.25736	0.10134
1558	1.25472	0.10194
1560	1.25207	0.10254
1562	1.24942	0.10316
1564	1.24675	0.10377
1566	1.24408	0.10439
1568	1.2414	0.10502
1570	1.23871	0.10564
1572	1.23602	0.10628
1574	1.23331	0.10691
1576	1.2306	0.10756
1578	1.22787	0.1082
1580	1.22514	0.10886
1582	1.2224	0.10951
1584	1.21966	0.11017
1586	1.2169	0.11084
1588	1.21413	0.11151
1590	1.21136	0.11218
1592	1.20858	0.11286
1594	1.20579	0.11355
1596	1.20299	0.11424
1598	1.20018	0.11494
1600	1.19736	0.11564
1602	1.19453	0.11634
1604	1.19169	0.11705
1606	1.18885	0.11777
1608	1.18599	0.11849
1610	1.18313	0.11922
1612	1.18026	0.11995
1614	1.17738	0.12069
1616	1.17448	0.12144
1618	1.17158	0.12219
1620	1.16867	0.12294
1622	1.16575	0.1237
1624	1.16282	0.12447
1626	1.15988	0.12525
1628	1.15693	0.12603
1630	1.15398	0.12681