// thickness-independent fraction of light power (for rudimentary optics) between 0 and 1
simple transmission coefficient:
1

// wavelength-independent absorption coefficient 'a' according to I(z)=I0*exp(-a*z) in [1/m]
lambert beer absorption coefficient:
0

// three-column refractive data for TMM calculations with wavelength [nm], n, k (must be tab-separated)
refractive data:
300	2.19386	0.01512
300.66533	2.19134	0.01384
301.33067	2.18882	0.01261
301.996	2.18629	0.01143
302.66133	2.18377	0.01031
303.32666	2.18126	0.00924
303.992	2.17874	0.00823
304.65733	2.17623	0.00727
305.32266	2.17373	0.00637
305.98799	2.17123	0.00552
306.65333	2.16875	0.00474
307.31866	2.16628	0.00401
307.98399	2.16382	0.00334
308.64932	2.16138	0.00273
309.31466	2.15896	0.00218
309.97999	2.15656	0.00169
310.64532	2.15419	0.00126
311.31066	2.15184	8.9E-4
311.97599	2.14953	5.8E-4
312.64132	2.14726	3.4E-4
313.30665	2.14504	1.6E-4
313.97199	2.14286	5E-5
314.63732	2.14076	0
315.30265	2.13875	0
315.96798	2.13682	0
316.63332	2.13495	0
317.29865	2.13314	0
317.96398	2.13138	0
318.62931	2.12966	0
319.29465	2.12798	0
319.95998	2.12633	0
320.62531	2.12472	0
321.29065	2.12315	0
321.95598	2.1216	0
322.62131	2.12009	0
323.28664	2.1186	0
323.95198	2.11714	0
324.61731	2.1157	0
325.28264	2.11429	0
325.94797	2.11291	0
326.61331	2.11154	0
327.27864	2.1102	0
327.94397	2.10888	0
328.6093	2.10758	0
329.27464	2.1063	0
329.93997	2.10504	0
330.6053	2.10379	0
331.27064	2.10257	0
331.93597	2.10136	0
332.6013	2.10017	0
333.26663	2.09899	0
333.93197	2.09784	0
334.5973	2.09669	0
335.26263	2.09557	0
335.92796	2.09445	0
336.5933	2.09335	0
337.25863	2.09227	0
337.92396	2.0912	0
338.58929	2.09014	0
339.25463	2.0891	0
339.91996	2.08807	0
340.58529	2.08705	0
341.25063	2.08604	0
341.91596	2.08505	0
342.58129	2.08407	0
343.24662	2.08309	0
343.91196	2.08213	0
344.57729	2.08118	0
345.24262	2.08025	0
345.90795	2.07932	0
346.57329	2.0784	0
347.23862	2.07749	0
347.90395	2.0766	0
348.56928	2.07571	0
349.23462	2.07483	0
349.89995	2.07396	0
350.56528	2.0731	0
351.23062	2.07225	0
351.89595	2.07141	0
352.56128	2.07058	0
353.22661	2.06976	0
353.89195	2.06894	0
354.55728	2.06813	0
355.22261	2.06734	0
355.88794	2.06654	0
356.55328	2.06576	0
357.21861	2.06499	0
357.88394	2.06422	0
358.54927	2.06346	0
359.21461	2.0627	0
359.87994	2.06196	0
360.54527	2.06122	0
361.21061	2.06049	0
361.87594	2.05976	0
362.54127	2.05905	0
363.2066	2.05834	0
363.87194	2.05763	0
364.53727	2.05693	0
365.2026	2.05624	0
365.86793	2.05556	0
366.53327	2.05488	0
367.1986	2.05421	0
367.86393	2.05354	0
368.52926	2.05288	0
369.1946	2.05222	0
369.85993	2.05157	0
370.52526	2.05093	0
371.1906	2.05029	0
371.85593	2.04966	0
372.52126	2.04903	0
373.18659	2.04841	0
373.85193	2.0478	0
374.51726	2.04718	0
375.18259	2.04658	0
375.84792	2.04598	0
376.51326	2.04538	0
377.17859	2.04479	0
377.84392	2.04421	0
378.50925	2.04363	0
379.17459	2.04305	0
379.83992	2.04248	0
380.50525	2.04191	0
381.17059	2.04135	0
381.83592	2.04079	0
382.50125	2.04024	0
383.16658	2.03969	0
383.83192	2.03915	0
384.49725	2.03861	0
385.16258	2.03807	0
385.82791	2.03754	0
386.49325	2.03701	0
387.15858	2.03649	0
387.82391	2.03597	0
388.48924	2.03546	0
389.15458	2.03495	0
389.81991	2.03444	0
390.48524	2.03394	0
391.15058	2.03344	0
391.81591	2.03294	0
392.48124	2.03245	0
393.14657	2.03196	0
393.81191	2.03148	0
394.47724	2.031	0
395.14257	2.03052	0
395.8079	2.03004	0
396.47324	2.02957	0
397.13857	2.02911	0
397.8039	2.02864	0
398.46923	2.02818	0
399.13457	2.02773	0
399.7999	2.02727	0
400.46523	2.02682	0
401.13057	2.02638	0
401.7959	2.02593	0
402.46123	2.02549	0
403.12656	2.02506	0
403.7919	2.02462	0
404.45723	2.02419	0
405.12256	2.02376	0
405.78789	2.02334	0
406.45323	2.02292	0
407.11856	2.0225	0
407.78389	2.02208	0
408.44922	2.02167	0
409.11456	2.02126	0
409.77989	2.02085	0
410.44522	2.02044	0
411.11056	2.02004	0
411.77589	2.01964	0
412.44122	2.01924	0
413.10655	2.01885	0
413.77189	2.01846	0
414.43722	2.01807	0
415.10255	2.01768	0
415.76788	2.0173	0
416.43322	2.01692	0
417.09855	2.01654	0
417.76388	2.01617	0
418.42921	2.01579	0
419.09455	2.01542	0
419.75988	2.01505	0
420.42521	2.01469	0
421.09055	2.01432	0
421.75588	2.01396	0
422.42121	2.0136	0
423.08654	2.01324	0
423.75188	2.01289	0
424.41721	2.01254	0
425.08254	2.01219	0
425.74787	2.01184	0
426.41321	2.01149	0
427.07854	2.01115	0
427.74387	2.01081	0
428.4092	2.01047	0
429.07454	2.01013	0
429.73987	2.0098	0
430.4052	2.00946	0
431.07054	2.00913	0
431.73587	2.00881	0
432.4012	2.00848	0
433.06653	2.00815	0
433.73187	2.00783	0
434.3972	2.00751	0
435.06253	2.00719	0
435.72786	2.00687	0
436.3932	2.00656	0
437.05853	2.00625	0
437.72386	2.00594	0
438.38919	2.00563	0
439.05453	2.00532	0
439.71986	2.00501	0
440.38519	2.00471	0
441.05053	2.00441	0
441.71586	2.00411	0
442.38119	2.00381	0
443.04652	2.00351	0
443.71186	2.00322	0
444.37719	2.00293	0
445.04252	2.00263	0
445.70785	2.00234	0
446.37319	2.00206	0
447.03852	2.00177	0
447.70385	2.00149	0
448.36918	2.0012	0
449.03452	2.00092	0
449.69985	2.00064	0
450.36518	2.00036	0
451.03052	2.00009	0
451.69585	1.99981	0
452.36118	1.99954	0
453.02651	1.99927	0
453.69185	1.999	0
454.35718	1.99873	0
455.02251	1.99846	0
455.68784	1.99819	0
456.35318	1.99793	0
457.01851	1.99767	0
457.68384	1.99741	0
458.34917	1.99715	0
459.01451	1.99689	0
459.67984	1.99663	0
460.34517	1.99638	0
461.01051	1.99612	0
461.67584	1.99587	0
462.34117	1.99562	0
463.0065	1.99537	0
463.67184	1.99512	0
464.33717	1.99487	0
465.0025	1.99463	0
465.66783	1.99438	0
466.33317	1.99414	0
466.9985	1.9939	0
467.66383	1.99366	0
468.32916	1.99342	0
468.9945	1.99318	0
469.65983	1.99294	0
470.32516	1.99271	0
470.9905	1.99247	0
471.65583	1.99224	0
472.32116	1.99201	0
472.98649	1.99178	0
473.65183	1.99155	0
474.31716	1.99132	0
474.98249	1.99109	0
475.64782	1.99087	0
476.31316	1.99064	0
476.97849	1.99042	0
477.64382	1.9902	0
478.30915	1.98998	0
478.97449	1.98976	0
479.63982	1.98954	0
480.30515	1.98932	0
480.97049	1.9891	0
481.63582	1.98889	0
482.30115	1.98867	0
482.96648	1.98846	0
483.63182	1.98825	0
484.29715	1.98804	0
484.96248	1.98783	0
485.62781	1.98762	0
486.29315	1.98741	0
486.95848	1.9872	0
487.62381	1.987	0
488.28914	1.98679	0
488.95448	1.98659	0
489.61981	1.98639	0
490.28514	1.98618	0
490.95048	1.98598	0
491.61581	1.98578	0
492.28114	1.98559	0
492.94647	1.98539	0
493.61181	1.98519	0
494.27714	1.985	0
494.94247	1.9848	0
495.6078	1.98461	0
496.27314	1.98441	0
496.93847	1.98422	0
497.6038	1.98403	0
498.26913	1.98384	0
498.93447	1.98365	0
499.5998	1.98346	0
500.26513	1.98328	0
500.93047	1.98309	0
501.5958	1.98291	0
502.26113	1.98272	0
502.92646	1.98254	0
503.5918	1.98235	0
504.25713	1.98217	0
504.92246	1.98199	0
505.58779	1.98181	0
506.25313	1.98163	0
506.91846	1.98145	0
507.58379	1.98128	0
508.24912	1.9811	0
508.91446	1.98092	0
509.57979	1.98075	0
510.24512	1.98057	0
510.91046	1.9804	0
511.57579	1.98023	0
512.24112	1.98006	0
512.90645	1.97988	0
513.57179	1.97971	0
514.23712	1.97955	0
514.90245	1.97938	0
515.56778	1.97921	0
516.23312	1.97904	0
516.89845	1.97888	0
517.56378	1.97871	0
518.22911	1.97854	0
518.89445	1.97838	0
519.55978	1.97822	0
520.22511	1.97805	0
520.89045	1.97789	0
521.55578	1.97773	0
522.22111	1.97757	0
522.88644	1.97741	0
523.55178	1.97725	0
524.21711	1.9771	0
524.88244	1.97694	0
525.54777	1.97678	0
526.21311	1.97662	0
526.87844	1.97647	0
527.54377	1.97631	0
528.2091	1.97616	0
528.87444	1.97601	0
529.53977	1.97586	0
530.2051	1.9757	0
530.87044	1.97555	0
531.53577	1.9754	0
532.2011	1.97525	0
532.86643	1.9751	0
533.53177	1.97495	0
534.1971	1.97481	0
534.86243	1.97466	0
535.52776	1.97451	0
536.1931	1.97437	0
536.85843	1.97422	0
537.52376	1.97408	0
538.18909	1.97393	0
538.85443	1.97379	0
539.51976	1.97365	0
540.18509	1.9735	0
540.85043	1.97336	0
541.51576	1.97322	0
542.18109	1.97308	0
542.84642	1.97294	0
543.51176	1.9728	0
544.17709	1.97266	0
544.84242	1.97253	0
545.50775	1.97239	0
546.17309	1.97225	0
546.83842	1.97212	0
547.50375	1.97198	0
548.16908	1.97184	0
548.83442	1.97171	0
549.49975	1.97158	0
550.16508	1.97144	0
550.83042	1.97131	0
551.49575	1.97118	0
552.16108	1.97105	0
552.82641	1.97092	0
553.49175	1.97079	0
554.15708	1.97066	0
554.82241	1.97053	0
555.48774	1.9704	0
556.15308	1.97027	0
556.81841	1.97014	0
557.48374	1.97001	0
558.14907	1.96989	0
558.81441	1.96976	0
559.47974	1.96963	0
560.14507	1.96951	0
560.81041	1.96938	0
561.47574	1.96926	0
562.14107	1.96914	0
562.8064	1.96901	0
563.47174	1.96889	0
564.13707	1.96877	0
564.8024	1.96865	0
565.46773	1.96853	0
566.13307	1.96841	0
566.7984	1.96829	0
567.46373	1.96817	0
568.12906	1.96805	0
568.7944	1.96793	0
569.45973	1.96781	0
570.12506	1.96769	0
570.7904	1.96757	0
571.45573	1.96746	0
572.12106	1.96734	0
572.78639	1.96723	0
573.45173	1.96711	0
574.11706	1.96699	0
574.78239	1.96688	0
575.44772	1.96677	0
576.11306	1.96665	0
576.77839	1.96654	0
577.44372	1.96643	0
578.10905	1.96631	0
578.77439	1.9662	0
579.43972	1.96609	0
580.10505	1.96598	0
580.77039	1.96587	0
581.43572	1.96576	0
582.10105	1.96565	0
582.76638	1.96554	0
583.43172	1.96543	0
584.09705	1.96532	0
584.76238	1.96522	0
585.42771	1.96511	0
586.09305	1.965	0
586.75838	1.9649	0
587.42371	1.96479	0
588.08904	1.96468	0
588.75438	1.96458	0
589.41971	1.96447	0
590.08504	1.96437	0
590.75038	1.96426	0
591.41571	1.96416	0
592.08104	1.96406	0
592.74637	1.96395	0
593.41171	1.96385	0
594.07704	1.96375	0
594.74237	1.96365	0
595.4077	1.96355	0
596.07304	1.96344	0
596.73837	1.96334	0
597.4037	1.96324	0
598.06903	1.96314	0
598.73437	1.96304	0
599.3997	1.96294	0
600.06503	1.96285	0
600.73037	1.96275	0
601.3957	1.96265	0
602.06103	1.96255	0
602.72636	1.96245	0
603.3917	1.96236	0
604.05703	1.96226	0
604.72236	1.96216	0
605.38769	1.96207	0
606.05303	1.96197	0
606.71836	1.96188	0
607.38369	1.96178	0
608.04902	1.96169	0
608.71436	1.96159	0
609.37969	1.9615	0
610.04502	1.96141	0
610.71036	1.96131	0
611.37569	1.96122	0
612.04102	1.96113	0
612.70635	1.96104	0
613.37169	1.96095	0
614.03702	1.96085	0
614.70235	1.96076	0
615.36768	1.96067	0
616.03302	1.96058	0
616.69835	1.96049	0
617.36368	1.9604	0
618.02901	1.96031	0
618.69435	1.96022	0
619.35968	1.96014	0
620.02501	1.96005	0
620.69035	1.95996	0
621.35568	1.95987	0
622.02101	1.95978	0
622.68634	1.9597	0
623.35168	1.95961	0
624.01701	1.95952	0
624.68234	1.95944	0
625.34767	1.95935	0
626.01301	1.95927	0
626.67834	1.95918	0
627.34367	1.95909	0
628.009	1.95901	0
628.67434	1.95893	0
629.33967	1.95884	0
630.005	1.95876	0
630.67034	1.95867	0
631.33567	1.95859	0
632.001	1.95851	0
632.66633	1.95843	0
633.33167	1.95834	0
633.997	1.95826	0
634.66233	1.95818	0
635.32766	1.9581	0
635.993	1.95802	0
636.65833	1.95794	0
637.32366	1.95786	0
637.98899	1.95777	0
638.65433	1.95769	0
639.31966	1.95761	0
639.98499	1.95754	0
640.65033	1.95746	0
641.31566	1.95738	0
641.98099	1.9573	0
642.64632	1.95722	0
643.31166	1.95714	0
643.97699	1.95706	0
644.64232	1.95699	0
645.30765	1.95691	0
645.97299	1.95683	0
646.63832	1.95676	0
647.30365	1.95668	0
647.96898	1.9566	0
648.63432	1.95653	0
649.29965	1.95645	0
649.96498	1.95638	0
650.63032	1.9563	0
651.29565	1.95623	0
651.96098	1.95615	0
652.62631	1.95608	0
653.29165	1.956	0
653.95698	1.95593	0
654.62231	1.95585	0
655.28764	1.95578	0
655.95298	1.95571	0
656.61831	1.95563	0
657.28364	1.95556	0
657.94897	1.95549	0
658.61431	1.95542	0
659.27964	1.95534	0
659.94497	1.95527	0
660.61031	1.9552	0
661.27564	1.95513	0
661.94097	1.95506	0
662.6063	1.95499	0
663.27164	1.95492	0
663.93697	1.95485	0
664.6023	1.95478	0
665.26763	1.95471	0
665.93297	1.95464	0
666.5983	1.95457	0
667.26363	1.9545	0
667.92896	1.95443	0
668.5943	1.95436	0
669.25963	1.95429	0
669.92496	1.95422	0
670.5903	1.95416	0
671.25563	1.95409	0
671.92096	1.95402	0
672.58629	1.95395	0
673.25163	1.95389	0
673.91696	1.95382	0
674.58229	1.95375	0
675.24762	1.95369	0
675.91296	1.95362	0
676.57829	1.95355	0
677.24362	1.95349	0
677.90895	1.95342	0
678.57429	1.95336	0
679.23962	1.95329	0
679.90495	1.95323	0
680.57029	1.95316	0
681.23562	1.9531	0
681.90095	1.95303	0
682.56628	1.95297	0
683.23162	1.9529	0
683.89695	1.95284	0
684.56228	1.95278	0
685.22761	1.95271	0
685.89295	1.95265	0
686.55828	1.95259	0
687.22361	1.95252	0
687.88894	1.95246	0
688.55428	1.9524	0
689.21961	1.95234	0
689.88494	1.95228	0
690.55028	1.95221	0
691.21561	1.95215	0
691.88094	1.95209	0
692.54627	1.95203	0
693.21161	1.95197	0
693.87694	1.95191	0
694.54227	1.95185	0
695.2076	1.95179	0
695.87294	1.95173	0
696.53827	1.95167	0
697.2036	1.95161	0
697.86893	1.95155	0
698.53427	1.95149	0
699.1996	1.95143	0
699.86493	1.95137	0
700.53027	1.95131	0
701.1956	1.95125	0
701.86093	1.95119	0
702.52626	1.95113	0
703.1916	1.95108	0
703.85693	1.95102	0
704.52226	1.95096	0
705.18759	1.9509	0
705.85293	1.95085	0
706.51826	1.95079	0
707.18359	1.95073	0
707.84892	1.95067	0
708.51426	1.95062	0
709.17959	1.95056	0
709.84492	1.9505	0
710.51026	1.95045	0
711.17559	1.95039	0
711.84092	1.95034	0
712.50625	1.95028	0
713.17159	1.95022	0
713.83692	1.95017	0
714.50225	1.95011	0
715.16758	1.95006	0
715.83292	1.95	0
716.49825	1.94995	0
717.16358	1.94989	0
717.82891	1.94984	0
718.49425	1.94979	0
719.15958	1.94973	0
719.82491	1.94968	0
720.49025	1.94962	0
721.15558	1.94957	0
721.82091	1.94952	0
722.48624	1.94946	0
723.15158	1.94941	0
723.81691	1.94936	0
724.48224	1.9493	0
725.14757	1.94925	0
725.81291	1.9492	0
726.47824	1.94915	0
727.14357	1.94909	0
727.8089	1.94904	0
728.47424	1.94899	0
729.13957	1.94894	0
729.8049	1.94889	0
730.47024	1.94884	0
731.13557	1.94878	0
731.8009	1.94873	0
732.46623	1.94868	0
733.13157	1.94863	0
733.7969	1.94858	0
734.46223	1.94853	0
735.12756	1.94848	0
735.7929	1.94843	0
736.45823	1.94838	0
737.12356	1.94833	0
737.78889	1.94828	0
738.45423	1.94823	0
739.11956	1.94818	0
739.78489	1.94813	0
740.45023	1.94808	0
741.11556	1.94803	0
741.78089	1.94798	0
742.44622	1.94794	0
743.11156	1.94789	0
743.77689	1.94784	0
744.44222	1.94779	0
745.10755	1.94774	0
745.77289	1.94769	0
746.43822	1.94765	0
747.10355	1.9476	0
747.76888	1.94755	0
748.43422	1.9475	0
749.09955	1.94746	0
749.76488	1.94741	0
750.43022	1.94736	0
751.09555	1.94731	0
751.76088	1.94727	0
752.42621	1.94722	0
753.09155	1.94717	0
753.75688	1.94713	0
754.42221	1.94708	0
755.08754	1.94704	0
755.75288	1.94699	0
756.41821	1.94694	0
757.08354	1.9469	0
757.74887	1.94685	0
758.41421	1.94681	0
759.07954	1.94676	0
759.74487	1.94672	0
760.41021	1.94667	0
761.07554	1.94663	0
761.74087	1.94658	0
762.4062	1.94654	0
763.07154	1.94649	0
763.73687	1.94645	0
764.4022	1.9464	0
765.06753	1.94636	0
765.73287	1.94631	0
766.3982	1.94627	0
767.06353	1.94623	0
767.72886	1.94618	0
768.3942	1.94614	0
769.05953	1.9461	0
769.72486	1.94605	0
770.3902	1.94601	0
771.05553	1.94597	0
771.72086	1.94592	0
772.38619	1.94588	0
773.05153	1.94584	0
773.71686	1.94579	0
774.38219	1.94575	0
775.04752	1.94571	0
775.71286	1.94567	0
776.37819	1.94562	0
777.04352	1.94558	0
777.70885	1.94554	0
778.37419	1.9455	0
779.03952	1.94546	0
779.70485	1.94542	0
780.37019	1.94537	0
781.03552	1.94533	0
781.70085	1.94529	0
782.36618	1.94525	0
783.03152	1.94521	0
783.69685	1.94517	0
784.36218	1.94513	0
785.02751	1.94509	0
785.69285	1.94505	0
786.35818	1.94501	0
787.02351	1.94496	0
787.68884	1.94492	0
788.35418	1.94488	0
789.01951	1.94484	0
789.68484	1.9448	0
790.35018	1.94476	0
791.01551	1.94472	0
791.68084	1.94468	0
792.34617	1.94465	0
793.01151	1.94461	0
793.67684	1.94457	0
794.34217	1.94453	0
795.0075	1.94449	0
795.67284	1.94445	0
796.33817	1.94441	0
797.0035	1.94437	0
797.66883	1.94433	0
798.33417	1.94429	0
798.9995	1.94426	0
799.66483	1.94422	0
800.33017	1.94418	0
800.9955	1.94414	0
801.66083	1.9441	0
802.32616	1.94406	0
802.9915	1.94403	0
803.65683	1.94399	0
804.32216	1.94395	0
804.98749	1.94391	0
805.65283	1.94388	0
806.31816	1.94384	0
806.98349	1.9438	0
807.64882	1.94376	0
808.31416	1.94373	0
808.97949	1.94369	0
809.64482	1.94365	0
810.31016	1.94362	0
810.97549	1.94358	0
811.64082	1.94354	0
812.30615	1.94351	0
812.97149	1.94347	0
813.63682	1.94343	0
814.30215	1.9434	0
814.96748	1.94336	0
815.63282	1.94333	0
816.29815	1.94329	0
816.96348	1.94325	0
817.62881	1.94322	0
818.29415	1.94318	0
818.95948	1.94315	0
819.62481	1.94311	0
820.29015	1.94308	0
820.95548	1.94304	0
821.62081	1.94301	0
822.28614	1.94297	0
822.95148	1.94294	0
823.61681	1.9429	0
824.28214	1.94287	0
824.94747	1.94283	0
825.61281	1.9428	0
826.27814	1.94276	0
826.94347	1.94273	0
827.6088	1.94269	0
828.27414	1.94266	0
828.93947	1.94262	0
829.6048	1.94259	0
830.27014	1.94256	0
830.93547	1.94252	0
831.6008	1.94249	0
832.26613	1.94245	0
832.93147	1.94242	0
833.5968	1.94239	0
834.26213	1.94235	0
834.92746	1.94232	0
835.5928	1.94229	0
836.25813	1.94225	0
836.92346	1.94222	0
837.58879	1.94219	0
838.25413	1.94215	0
838.91946	1.94212	0
839.58479	1.94209	0
840.25013	1.94206	0
840.91546	1.94202	0
841.58079	1.94199	0
842.24612	1.94196	0
842.91146	1.94193	0
843.57679	1.94189	0
844.24212	1.94186	0
844.90745	1.94183	0
845.57279	1.9418	0
846.23812	1.94176	0
846.90345	1.94173	0
847.56878	1.9417	0
848.23412	1.94167	0
848.89945	1.94164	0
849.56478	1.94161	0
850.23012	1.94157	0
850.89545	1.94154	0
851.56078	1.94151	0
852.22611	1.94148	0
852.89145	1.94145	0
853.55678	1.94142	0
854.22211	1.94139	0
854.88744	1.94136	0
855.55278	1.94132	0
856.21811	1.94129	0
856.88344	1.94126	0
857.54877	1.94123	0
858.21411	1.9412	0
858.87944	1.94117	0
859.54477	1.94114	0
860.21011	1.94111	0
860.87544	1.94108	0
861.54077	1.94105	0
862.2061	1.94102	0
862.87144	1.94099	0
863.53677	1.94096	0
864.2021	1.94093	0
864.86743	1.9409	0
865.53277	1.94087	0
866.1981	1.94084	0
866.86343	1.94081	0
867.52876	1.94078	0
868.1941	1.94075	0
868.85943	1.94072	0
869.52476	1.94069	0
870.1901	1.94066	0
870.85543	1.94063	0
871.52076	1.9406	0
872.18609	1.94057	0
872.85143	1.94055	0
873.51676	1.94052	0
874.18209	1.94049	0
874.84742	1.94046	0
875.51276	1.94043	0
876.17809	1.9404	0
876.84342	1.94037	0
877.50875	1.94034	0
878.17409	1.94032	0
878.83942	1.94029	0
879.50475	1.94026	0
880.17009	1.94023	0
880.83542	1.9402	0
881.50075	1.94017	0
882.16608	1.94015	0
882.83142	1.94012	0
883.49675	1.94009	0
884.16208	1.94006	0
884.82741	1.94003	0
885.49275	1.94001	0
886.15808	1.93998	0
886.82341	1.93995	0
887.48874	1.93992	0
888.15408	1.9399	0
888.81941	1.93987	0
889.48474	1.93984	0
890.15008	1.93981	0
890.81541	1.93979	0
891.48074	1.93976	0
892.14607	1.93973	0
892.81141	1.93971	0
893.47674	1.93968	0
894.14207	1.93965	0
894.8074	1.93963	0
895.47274	1.9396	0
896.13807	1.93957	0
896.8034	1.93955	0
897.46873	1.93952	0
898.13407	1.93949	0
898.7994	1.93947	0
899.46473	1.93944	0
900.13007	1.93941	0
900.7954	1.93939	0
901.46073	1.93936	0
902.12606	1.93933	0
902.7914	1.93931	0
903.45673	1.93928	0
904.12206	1.93926	0
904.78739	1.93923	0
905.45273	1.9392	0
906.11806	1.93918	0
906.78339	1.93915	0
907.44872	1.93913	0
908.11406	1.9391	0
908.77939	1.93908	0
909.44472	1.93905	0
910.11006	1.93902	0
910.77539	1.939	0
911.44072	1.93897	0
912.10605	1.93895	0
912.77139	1.93892	0
913.43672	1.9389	0
914.10205	1.93887	0
914.76738	1.93885	0
915.43272	1.93882	0
916.09805	1.9388	0
916.76338	1.93877	0
917.42871	1.93875	0
918.09405	1.93872	0
918.75938	1.9387	0
919.42471	1.93867	0
920.09005	1.93865	0
920.75538	1.93863	0
921.42071	1.9386	0
922.08604	1.93858	0
922.75138	1.93855	0
923.41671	1.93853	0
924.08204	1.9385	0
924.74737	1.93848	0
925.41271	1.93846	0
926.07804	1.93843	0
926.74337	1.93841	0
927.4087	1.93838	0
928.07404	1.93836	0
928.73937	1.93834	0
929.4047	1.93831	0
930.07004	1.93829	0
930.73537	1.93826	0
931.4007	1.93824	0
932.06603	1.93822	0
932.73137	1.93819	0
933.3967	1.93817	0
934.06203	1.93815	0
934.72736	1.93812	0
935.3927	1.9381	0
936.05803	1.93808	0
936.72336	1.93805	0
937.38869	1.93803	0
938.05403	1.93801	0
938.71936	1.93798	0
939.38469	1.93796	0
940.05003	1.93794	0
940.71536	1.93791	0
941.38069	1.93789	0
942.04602	1.93787	0
942.71136	1.93785	0
943.37669	1.93782	0
944.04202	1.9378	0
944.70735	1.93778	0
945.37269	1.93776	0
946.03802	1.93773	0
946.70335	1.93771	0
947.36868	1.93769	0
948.03402	1.93767	0
948.69935	1.93764	0
949.36468	1.93762	0
950.03002	1.9376	0
950.69535	1.93758	0
951.36068	1.93755	0
952.02601	1.93753	0
952.69135	1.93751	0
953.35668	1.93749	0
954.02201	1.93747	0
954.68734	1.93745	0
